timestamp;x;y;z
0.186477;-0.062012;-0.888916;0.407471
0.186692;-0.058594;-0.892334;0.393799
0.186908;-0.057129;-0.884766;0.399414
0.187020;-0.062012;-0.883057;0.409424
0.313941;-0.055176;-0.886719;0.396240
0.314278;-0.056885;-0.886963;0.401855
0.314478;-0.055908;-0.888428;0.406006
0.314740;-0.047852;-0.890869;0.394287
0.460165;-0.056396;-0.882812;0.404297
0.460369;-0.062744;-0.894287;0.403320
0.460501;-0.051758;-0.885010;0.391113
0.460705;-0.056152;-0.879639;0.411133
0.573494;-0.058594;-0.889893;0.407959
0.573607;-0.054443;-0.890869;0.391846
0.573684;-0.058105;-0.884521;0.401611
0.573833;-0.059326;-0.884766;0.399902
0.703629;-0.054199;-0.887695;0.398193
0.703720;-0.053467;-0.882324;0.408936
0.703773;-0.058350;-0.893311;0.402100
0.703867;-0.055420;-0.889893;0.394043
0.817299;-0.055420;-0.877686;0.402832
0.817442;-0.061768;-0.885986;0.406494
0.817513;-0.058838;-0.894043;0.395752
0.817575;-0.055176;-0.878662;0.401367
0.947676;-0.059326;-0.887207;0.406250
0.948006;-0.054199;-0.893799;0.391846
0.948284;-0.055420;-0.879150;0.403076
0.948536;-0.061035;-0.887695;0.410889
1.077505;-0.060059;-0.891846;0.393311
1.077953;-0.063721;-0.878906;0.397461
1.078333;-0.062744;-0.888916;0.404297
1.078699;-0.070557;-0.889160;0.401855
1.207510;-0.065430;-0.901123;0.403076
1.207988;-0.055664;-0.859863;0.397949
1.208373;-0.057861;-0.876953;0.393555
1.208737;-0.055664;-0.889160;0.412354
1.337957;-0.054932;-0.935791;0.441895
1.338400;-0.083008;-0.915527;0.406250
1.338776;-0.098145;-0.845459;0.362793
1.339135;-0.102051;-0.871826;0.376221
1.467747;-0.088867;-0.866211;0.417725
1.468267;-0.113037;-0.833984;0.481201
1.468646;-0.105957;-0.842529;0.470215
1.469188;-0.134766;-0.913818;0.393799
1.581459;-0.106445;-0.822754;0.388916
1.581982;-0.099609;-0.892334;0.396484
1.582362;-0.056885;-0.939209;0.359619
1.582726;-0.089355;-0.994141;0.379150
1.695041;0.001953;-0.801025;0.360840
1.695498;0.018066;-0.907715;0.256592
1.695877;0.091064;-1.135498;0.330811
1.696239;0.048096;-0.944092;0.376953
1.825589;0.075928;-1.107422;0.240234
1.826118;0.035156;-1.234863;0.156738
1.826545;0.010986;-0.949219;0.225830
1.826913;0.123779;-0.868652;0.375488
1.971316;-0.016357;-0.994629;0.300293
1.971825;-0.059326;-0.944824;0.289795
1.972202;-0.079834;-0.998291;0.283447
1.972569;-0.095215;-0.958740;0.302002
2.085692;-0.004639;-0.982178;0.303467
2.086285;-0.059814;-0.856689;0.375000
2.086671;-0.103516;-0.924072;0.291016
2.087525;-0.153320;-1.086182;0.216064
2.215177;-0.114990;-0.846924;0.294922
2.215671;-0.019043;-0.798096;0.311768
2.216222;0.004883;-0.784668;0.306396
2.216594;0.150146;-0.688965;0.462402
2.345045;0.153809;-0.626465;0.412354
2.345502;0.250244;-0.674561;0.418457
2.345877;0.304443;-0.787842;0.378662
2.346240;0.274414;-0.729004;0.252930
2.458735;0.324951;-0.849609;0.163086
2.459302;0.375244;-0.974609;0.115234
2.459683;0.390137;-0.926758;0.170654
2.460048;0.396973;-1.041260;0.200195
2.588833;0.341064;-1.084229;0.214844
2.589320;0.282227;-0.971436;0.201660
2.589697;0.211914;-0.985840;0.188477
2.590147;0.160645;-0.964600;0.165283
2.718255;0.109375;-0.942139;0.175537
2.718762;0.036865;-1.021484;0.145020
2.719270;-0.010254;-1.081543;0.142334
2.719644;-0.064941;-1.089355;0.145508
2.848797;-0.104980;-1.065186;0.167480
2.849254;-0.158691;-1.055908;0.194336
2.850129;-0.211914;-0.921875;0.223633
2.850501;-0.246582;-0.808105;0.206543
2.981475;-0.235840;-0.724121;0.157715
2.981963;-0.276123;-0.760986;0.139160
2.982343;-0.292969;-0.810791;0.138916
2.982707;-0.314453;-0.744141;0.070312
3.094137;-0.327637;-0.696533;0.032471
3.094615;-0.272461;-0.637695;0.040527
3.094992;-0.253662;-0.734131;0.056396
3.095359;-0.249268;-0.798828;0.043213
3.206416;-0.233398;-0.744873;0.017334
3.206908;-0.195068;-0.870117;0.020264
3.207281;-0.207520;-1.072266;0.034912
3.207646;-0.221436;-1.067139;0.036133
3.336374;-0.207764;-1.169922;0.041016
3.336853;-0.179688;-1.172363;0.081543
3.337660;-0.135742;-1.007568;0.125488
3.338028;-0.109131;-0.981201;0.101807
3.466768;-0.050293;-1.041504;0.076172
3.467221;0.016113;-1.035645;0.083984
3.467596;0.019287;-1.168701;0.015381
3.467957;0.034912;-1.207764;-0.032471
3.596456;0.031006;-1.064697;-0.030762
3.597010;0.050049;-0.821533;0.027100
3.597393;0.052734;-0.810059;-0.001953
3.597757;-0.020508;-0.958496;-0.018066
3.726479;-0.013672;-0.939209;-0.026611
3.726993;-0.047852;-1.007324;-0.052734
3.727370;-0.118896;-1.162354;-0.085449
3.727735;-0.149414;-1.011719;-0.042725
3.856488;-0.137939;-0.974121;-0.008301
3.856998;-0.175781;-1.008301;-0.033447
3.857378;-0.208496;-0.911377;-0.037598
3.857741;-0.174316;-0.843018;-0.020752
3.970317;-0.146729;-0.813232;0.001953
3.971346;-0.143799;-1.030029;-0.032471
3.971728;-0.087158;-0.935791;-0.041260
3.972093;-0.057617;-0.901855;-0.014404
4.100223;-0.133545;-1.141113;-0.014893
4.100736;-0.112061;-0.917236;0.028076
4.101114;-0.112061;-0.842285;0.017578
4.101479;-0.128174;-1.056641;-0.046875
4.213874;-0.081787;-0.906738;-0.014404
4.214360;-0.077881;-0.871826;0.003906
4.214737;-0.088867;-0.978271;-0.054443
4.215097;-0.076904;-0.967529;-0.080078
4.360197;-0.083008;-0.968750;-0.165771
4.360669;-0.088623;-0.949463;-0.138184
4.361044;-0.082764;-0.865234;-0.158447
4.362279;-0.132324;-1.019287;-0.200684
4.490316;-0.128418;-0.898682;-0.134033
4.490827;-0.057129;-0.857910;-0.155762
4.491203;-0.096924;-1.102539;-0.340820
4.491567;-0.028564;-0.993652;-0.151123
4.604278;0.055420;-0.845459;-0.072510
4.604495;-0.006836;-0.963379;-0.066406
4.604706;0.083252;-1.129883;-0.272705
4.605089;0.042725;-1.100830;-0.366699
4.733328;0.047607;-0.826660;-0.261963
4.733424;-0.065918;-0.855469;-0.125488
4.733627;-0.052246;-0.737549;-0.108643
4.733708;-0.153809;-0.774414;0.049805
4.863828;-0.235352;-1.092041;-0.120850
4.863958;-0.224365;-1.121826;-0.068604
4.864179;-0.282959;-0.895752;-0.018799
4.864260;-0.204102;-0.835449;-0.098633
4.978479;-0.079834;-0.852539;-0.254883
4.979068;-0.095459;-0.841064;-0.384277
4.979725;0.023438;-1.102539;-0.187744
4.980013;-0.125732;-1.361084;-0.268066
5.107236;-0.133545;-0.945557;-0.250732
5.107340;-0.146973;-0.674561;-0.220459
5.107481;-0.088379;-0.763184;-0.176758
5.107574;-0.124268;-0.843262;0.045898
5.240078;-0.346191;-0.735596;0.215088
5.240837;-0.402588;-0.835693;0.172852
5.241534;-0.523926;-0.919678;0.088623
5.242557;-0.581787;-1.202637;-0.324219
5.367744;-0.471924;-1.217529;-0.401123
5.368264;-0.383545;-0.953857;-0.310303
5.368425;-0.324951;-0.917236;-0.125488
5.368514;-0.291748;-0.878174;-0.003174
5.481340;-0.215820;-0.840820;0.015869
5.481529;-0.104980;-0.898193;-0.064941
5.481662;-0.060547;-0.982910;-0.112061
5.481960;-0.042236;-0.920166;-0.132080
5.610595;-0.055908;-1.237549;-0.352295
5.610696;0.014404;-1.026855;-0.218018
5.610753;0.093018;-0.853271;0.138184
5.610795;0.122559;-1.292480;0.255859
5.740879;0.181885;-1.238037;0.031006
5.740977;0.233154;-0.960449;-0.029297
5.741047;-0.144531;-0.608398;0.055908
5.741148;-0.165771;-0.562500;0.045166
5.872088;-0.243652;-0.440186;0.067383
5.872597;-0.415771;-0.415039;0.070801
5.872979;-0.527588;-0.728271;0.078125
5.873354;-0.467285;-0.926025;0.284912
6.006030;-0.406738;-1.187012;0.667480
6.006174;-0.303223;-1.385742;0.741943
6.006311;-0.198975;-1.220947;0.295898
6.006409;-0.198242;-1.115967;-0.055664
6.115193;-0.218994;-1.004639;-0.049805
6.115387;0.016846;-0.547607;-0.387939
6.115518;0.097168;-1.861572;-0.574951
6.115720;-0.143555;-1.252441;-0.733154
6.261015;0.000488;-0.960205;-0.388916
6.261192;-0.007812;-0.950684;-0.183350
6.261281;-0.066406;-0.892090;-0.405273
6.261360;-0.030762;-0.778320;-0.421143
6.391068;0.052002;-0.937012;-0.142578
6.391307;0.054443;-0.882568;-0.135742
6.391420;0.009766;-0.687988;0.366455
6.391649;-0.072510;-1.293457;0.182861
6.489493;-0.135742;-0.322754;0.605957
6.489663;-0.269775;0.304443;1.137207
6.489877;-0.088867;-0.570557;0.899902
6.490007;0.030029;-0.405518;0.766602
6.618906;-0.021729;-0.099609;0.936523
6.619379;0.047607;-0.446045;0.859863
6.619589;-0.045654;0.037842;0.965576
6.619733;-0.067383;-0.016602;0.993164
6.749361;-0.006348;-0.087402;0.857422
6.749671;0.138428;-0.188965;0.411133
6.749897;0.089600;-0.122070;0.031738
6.750026;0.135254;-1.186035;-0.206299
6.879167;0.173828;-0.795410;-0.323975
6.879694;0.034668;-1.059082;-0.545410
6.880078;0.038086;-1.068848;-0.664062
6.880507;-0.061768;-0.922607;-0.494629
6.994194;0.047119;-0.824219;-0.569092
6.995239;0.120605;-0.774170;-0.742188
6.996244;-0.158936;-0.898682;-0.644287
6.996494;0.131104;-0.859375;-0.686279
7.129082;0.148682;-0.774170;-0.688477
7.129129;0.113281;-0.841553;-0.615479
7.129151;0.112793;-0.798828;-0.657959
7.129171;-0.063721;-0.732666;-0.713135
7.252013;-0.060059;-0.834229;-0.770264
7.252070;-0.054688;-0.731934;-0.714844
7.252097;-0.057861;-0.724365;-0.621826
7.252121;0.067383;-0.739502;-0.670654
7.382440;0.018311;-0.679932;-0.630371
7.382571;0.093262;-0.748291;-0.560059
7.382635;0.198975;-0.723145;-0.537842
7.382692;0.096191;-0.733398;-0.489990
7.513178;0.007324;-0.812988;-0.486328
7.513327;-0.127930;-0.831055;-0.565918
7.513417;0.376953;-0.598633;-0.614502
7.513501;-0.388184;-1.105713;-0.160400
7.629069;0.139648;-0.987305;-0.552490
7.629216;-0.084473;-0.970947;-0.347656
7.629519;0.127930;-0.811279;-0.177979
7.629630;0.223389;-0.615967;-0.160889
7.756792;0.053955;-0.762939;-0.179688
7.756949;-0.085205;-0.532471;0.264648
7.757043;-0.159424;-0.620605;0.620850
7.757130;-0.061768;-0.700195;0.447021
7.886628;0.029297;-0.970459;0.143066
7.886786;0.045654;-1.285400;0.480469
7.886879;-0.006592;-0.911621;0.683594
7.886969;-0.050049;-1.204834;0.000977
8.035734;0.084229;-1.565918;-0.088135
8.035845;-0.167969;-1.071045;0.058105
8.035908;-0.115723;-1.063232;0.109375
8.035965;-0.197998;-0.746826;0.335938
8.147119;-0.221191;-0.628418;0.261475
8.147268;-0.195801;-0.665283;0.024170
8.147358;-0.123535;-0.628906;-0.205078
8.147439;0.068115;-1.439697;-0.388916
8.276527;-0.240723;-1.543701;-0.630371
8.276705;-0.184082;-1.092285;-0.316895
8.276801;-0.246582;-0.736084;-0.000732
8.276898;-0.236084;-0.747314;0.187012
8.390062;-0.260986;-0.942383;0.245361
8.390319;-0.299072;-0.951660;0.238770
8.390437;-0.318848;-0.884521;0.147705
8.390525;-0.332520;-0.957275;0.116943
8.504131;-0.309814;-0.936279;0.142090
8.504695;-0.317871;-0.920166;0.182373
8.504832;-0.339600;-0.947266;0.202393
8.504926;-0.289551;-0.915039;0.175293
8.633439;-0.241211;-0.887939;0.159668
8.633509;-0.201416;-0.914062;0.138916
8.633537;-0.188721;-0.938232;0.123779
8.633560;-0.173828;-0.950439;0.101318
8.763791;-0.190918;-0.926514;0.121582
8.763923;-0.210693;-0.920898;0.149414
8.763986;-0.255859;-0.922363;0.167236
8.764043;-0.274414;-0.926025;0.166016
8.910160;-0.293945;-0.929932;0.165527
8.910334;-0.297119;-0.947021;0.165771
8.910429;-0.284180;-0.933594;0.173340
8.910514;-0.279053;-0.911377;0.170166
9.023857;-0.273682;-0.910889;0.163574
9.023993;-0.279785;-0.919922;0.162598
9.024090;-0.287598;-0.920166;0.172363
9.024178;-0.293213;-0.920898;0.192383
9.154061;-0.298340;-0.907471;0.198486
9.154219;-0.295898;-0.897217;0.197510
9.154314;-0.291504;-0.900391;0.199951
9.154401;-0.272705;-0.930176;0.182617
9.267857;-0.259033;-0.929932;0.168945
9.268002;-0.246094;-0.935547;0.145508
9.268228;-0.241211;-0.935303;0.144043
9.268318;-0.243408;-0.938965;0.151123
9.398204;-0.240234;-0.926514;0.164795
9.398344;-0.243652;-0.922119;0.168457
9.398440;-0.251221;-0.921631;0.174072
9.398528;-0.262695;-0.934570;0.176758
9.511565;-0.268311;-0.934326;0.187012
9.511710;-0.263428;-0.917969;0.187012
9.511805;-0.257812;-0.921387;0.175781
9.511892;-0.250000;-0.932373;0.169189
9.657661;-0.242432;-0.930420;0.169678
9.657800;-0.245605;-0.924561;0.179443
9.657893;-0.253662;-0.922363;0.184326
9.657980;-0.258057;-0.917480;0.187744
9.787801;-0.267822;-0.917480;0.187256
9.790909;-0.272217;-0.917969;0.187012
9.791039;-0.268555;-0.916016;0.194092
9.791131;-0.269287;-0.917725;0.187500
9.902202;-0.268066;-0.921387;0.179443
9.902342;-0.269531;-0.925537;0.178223
9.902437;-0.269775;-0.928467;0.176270
9.902538;-0.267578;-0.926025;0.174805
10.015393;-0.268066;-0.928223;0.166748
10.015533;-0.260986;-0.933838;0.155029
10.015626;-0.261475;-0.916260;0.163330
10.015712;-0.267822;-0.905029;0.169678
10.274619;-0.277344;-0.922363;0.163818
10.274730;-0.282959;-0.923584;0.167480
10.274790;-0.294434;-0.915527;0.172119
10.274844;-0.294678;-0.915039;0.173340
10.275805;-0.301514;-0.925049;0.162598
10.275899;-0.290039;-0.917480;0.150879
10.275961;-0.275146;-0.922852;0.153076
10.276021;-0.274658;-0.932373;0.148438
10.861454;-0.283203;-0.937744;0.133545
10.861630;-0.290283;-0.921631;0.136475
10.861654;-0.300537;-0.919434;0.150635
10.861720;-0.301025;-0.927002;0.155273
10.862140;-0.277344;-0.922363;0.158447
10.862167;-0.263916;-0.915283;0.167725
10.862187;-0.253174;-0.915283;0.170166
10.862206;-0.256348;-0.911865;0.168457
10.967005;-0.268799;-0.909912;0.170654
10.967056;-0.282959;-0.915527;0.175049
10.967077;-0.294189;-0.925293;0.160645
10.967098;-0.291016;-0.926270;0.153320
11.072635;-0.279541;-0.926025;0.152832
11.072674;-0.263916;-0.923584;0.144775
11.072695;-0.263916;-0.927002;0.137451
11.072716;-0.269775;-0.925781;0.143799
11.250050;-0.283447;-0.921387;0.163086
11.250153;-0.285645;-0.919189;0.168213
11.250346;-0.286377;-0.914062;0.165283
11.250666;-0.284912;-0.918213;0.155273
11.251321;-0.282959;-0.922607;0.146729
11.251383;-0.281494;-0.921631;0.149658
11.251422;-0.287842;-0.921631;0.151123
11.251534;-0.294189;-0.929688;0.140625
11.252693;-0.293945;-0.926270;0.144531
11.252765;-0.292236;-0.917725;0.152344
11.252806;-0.288818;-0.923340;0.146240
11.252844;-0.281250;-0.933350;0.143066
11.347940;-0.270508;-0.913818;0.154785
11.348037;-0.271973;-0.916016;0.150635
11.348099;-0.277832;-0.925537;0.143555
11.348167;-0.285400;-0.920410;0.155762
11.445742;-0.289795;-0.919922;0.159424
11.445872;-0.294922;-0.917969;0.152588
11.445961;-0.299561;-0.927734;0.141846
11.446047;-0.293213;-0.923340;0.146484
11.543076;-0.285645;-0.917480;0.154785
11.543242;-0.279785;-0.916748;0.160400
11.543342;-0.281006;-0.923340;0.156738
11.543432;-0.280762;-0.921143;0.154297
11.739004;-0.280029;-0.915771;0.156250
11.739075;-0.284424;-0.919434;0.156738
11.739315;-0.287598;-0.922607;0.154541
11.739347;-0.285889;-0.921875;0.152832
11.834919;-0.284424;-0.923828;0.149658
11.835057;-0.285156;-0.917725;0.152344
11.835101;-0.286865;-0.924561;0.153564
11.835140;-0.289062;-0.923584;0.155762
12.033206;-0.290039;-0.917969;0.153076
12.033344;-0.286621;-0.919189;0.154053
12.033439;-0.287109;-0.920166;0.155762
12.033526;-0.286377;-0.923096;0.153076
12.135565;-0.287842;-0.920898;0.152344
12.136341;-0.288818;-0.923584;0.151611
12.136681;-0.288330;-0.925537;0.146973
12.136779;-0.287109;-0.915527;0.150391
12.228499;-0.286377;-0.915283;0.156250
12.229145;-0.285889;-0.922852;0.154053
12.229259;-0.284180;-0.927734;0.149414
12.229530;-0.283447;-0.919189;0.149414
12.324538;-0.284668;-0.917969;0.151611
12.324691;-0.284424;-0.918701;0.154541
12.324788;-0.281494;-0.920166;0.155273
12.324876;-0.282715;-0.923828;0.157715
12.421122;-0.283447;-0.925781;0.151611
12.421217;-0.284180;-0.923584;0.147949
12.421305;-0.291992;-0.926270;0.146973
12.421388;-0.293457;-0.919678;0.154053
13.008197;-0.286133;-0.918701;0.156494
13.008335;-0.280762;-0.917236;0.153809
13.008429;-0.268066;-0.929199;0.161377
13.008518;-0.257568;-0.921387;0.175049
13.009855;-0.248535;-0.910400;0.176514
13.009960;-0.253418;-0.914551;0.162598
13.010044;-0.268066;-0.924316;0.158691
13.010128;-0.284180;-0.921143;0.159180
13.104130;-0.299805;-0.929443;0.153076
13.104269;-0.305664;-0.932373;0.144775
13.104364;-0.299561;-0.926025;0.141602
13.104451;-0.295410;-0.926758;0.145752
13.106587;-0.291260;-0.923096;0.154541
13.106687;-0.289795;-0.921875;0.178711
13.106773;-0.288086;-0.924316;0.156006
13.106857;-0.284668;-0.946289;0.113281
13.107026;-0.281738;-0.938721;0.097168
13.107109;-0.274658;-0.927246;0.128418
13.107193;-0.279541;-0.921875;0.144531
13.107275;-0.280518;-0.919189;0.157227
13.203900;-0.279053;-0.917480;0.156006
13.204254;-0.273438;-0.923096;0.145752
13.205169;-0.270020;-0.924561;0.150635
13.205465;-0.267090;-0.926514;0.151611
13.299657;-0.265869;-0.923340;0.148682
13.299811;-0.266113;-0.921631;0.149658
13.299906;-0.275879;-0.924316;0.154785
13.299995;-0.283203;-0.925049;0.155029
13.494741;-0.281982;-0.923340;0.153564
13.495097;-0.278076;-0.921143;0.150635
13.495740;-0.274414;-0.924805;0.149414
13.495940;-0.275879;-0.924561;0.153809
13.593748;-0.275146;-0.925537;0.150391
13.594645;-0.279541;-0.927979;0.147461
13.594977;-0.278076;-0.924316;0.144775
13.595274;-0.279053;-0.921387;0.153320
13.688871;-0.278564;-0.921631;0.150879
13.688994;-0.274170;-0.923096;0.149170
13.689090;-0.276123;-0.925537;0.151611
13.689177;-0.286621;-0.927490;0.156006
13.882748;-0.289307;-0.925781;0.147461
13.882884;-0.272949;-0.916504;0.151855
13.882977;-0.263672;-0.924561;0.152344
13.883063;-0.263672;-0.921143;0.156250
13.980584;-0.271729;-0.921875;0.158447
13.980715;-0.283203;-0.924072;0.153809
13.980808;-0.286133;-0.925781;0.146729
13.980893;-0.277344;-0.924072;0.144775
14.077775;-0.278564;-0.921631;0.154053
14.077916;-0.275146;-0.923340;0.150146
14.078009;-0.277100;-0.928711;0.149658
14.078096;-0.278809;-0.924316;0.151611
14.272457;-0.279541;-0.921387;0.150879
14.272590;-0.274902;-0.923828;0.145020
14.272685;-0.263428;-0.916748;0.152100
14.272771;-0.276367;-0.920654;0.164062
14.370258;-0.291504;-0.938721;0.138428
14.370397;-0.286133;-0.920654;0.143799
14.370491;-0.265381;-0.911377;0.151123
14.370577;-0.264404;-0.926270;0.153076
14.468275;-0.270264;-0.928467;0.153076
14.468398;-0.280762;-0.924316;0.154541
14.468489;-0.282471;-0.921143;0.150635
14.468574;-0.282227;-0.919678;0.153564
14.566046;-0.271240;-0.922119;0.148438
14.566170;-0.268555;-0.926270;0.149170
14.566261;-0.272949;-0.927979;0.140381
14.566348;-0.274414;-0.927002;0.143799
14.760410;-0.282959;-0.920898;0.152832
14.760564;-0.289062;-0.925537;0.143066
14.760657;-0.293701;-0.928223;0.132812
14.760741;-0.297607;-0.926514;0.137939
14.858246;-0.292480;-0.930664;0.141846
14.858369;-0.275391;-0.927979;0.140625
14.858461;-0.272217;-0.919189;0.152832
14.858547;-0.276367;-0.926758;0.149414
14.955352;-0.282471;-0.921631;0.152588
14.955499;-0.277100;-0.916260;0.156006
14.955593;-0.274658;-0.917725;0.157715
14.955679;-0.278564;-0.917969;0.157715
15.150291;-0.283936;-0.920166;0.155029
15.150429;-0.285889;-0.921387;0.156982
15.150521;-0.283203;-0.920654;0.157959
15.150608;-0.290283;-0.925049;0.147217
15.250175;-0.290283;-0.930176;0.142822
15.250270;-0.284912;-0.923340;0.140869
15.250356;-0.277100;-0.925537;0.143311
15.250439;-0.274902;-0.927490;0.145996
15.345380;-0.261963;-0.927979;0.148193
15.345519;-0.268311;-0.925293;0.149170
15.345612;-0.283203;-0.922852;0.150391
15.345698;-0.290039;-0.913818;0.158203
15.443139;-0.294678;-0.913086;0.164551
15.443263;-0.300537;-0.925049;0.153320
15.443354;-0.297607;-0.925537;0.150146
15.443454;-0.283936;-0.924072;0.147705
15.638134;-0.278076;-0.925049;0.140869
15.638263;-0.280273;-0.922363;0.145996
15.638357;-0.278809;-0.924805;0.155273
15.638443;-0.280762;-0.922852;0.152832
15.735292;-0.281006;-0.921631;0.144775
15.735429;-0.284668;-0.920898;0.154053
15.735521;-0.285156;-0.922363;0.156982
15.735608;-0.286377;-0.922852;0.155518
15.833236;-0.291992;-0.917725;0.161621
15.833359;-0.301758;-0.908203;0.164307
15.833450;-0.304199;-0.919922;0.162354
15.833536;-0.320557;-0.900391;0.147705
16.418049;-0.320801;-0.930420;0.159180
16.418209;-0.329102;-0.900879;0.163818
16.418301;-0.339844;-0.909668;0.177979
16.418383;-0.342285;-0.898682;0.175537
16.419512;-0.362549;-0.888184;0.170654
16.419662;-0.294189;-0.910400;0.170166
16.419765;-0.373535;-0.881836;0.131348
16.419857;-0.316162;-0.894775;0.102051
16.516064;-0.323975;-0.920898;0.103271
16.516302;-0.320557;-0.919678;0.110107
16.516403;-0.321533;-0.926270;0.094727
16.516491;-0.349854;-0.914062;0.103516
16.517416;-0.340332;-0.910156;0.093750
16.518017;-0.380371;-0.908691;0.088623
16.518167;-0.340576;-0.893555;0.108887
16.518574;-0.351562;-0.911865;0.096680
16.612295;-0.342529;-0.935303;0.104492
16.612450;-0.330322;-0.910156;0.108643
16.612539;-0.326660;-0.922119;0.110596
16.612621;-0.325684;-0.892334;0.117920
16.613836;-0.335449;-0.903076;0.100586
16.613953;-0.322266;-0.927002;0.082520
16.614042;-0.320312;-0.947266;0.082764
16.614126;-0.321289;-0.910156;0.087891
16.710230;-0.283691;-0.955078;0.072998
16.710365;-0.329834;-0.946045;0.065430
16.710461;-0.281982;-0.839844;0.085449
16.710545;-0.314697;-0.973877;0.096680
16.905384;-0.258789;-0.888184;0.101318
16.905523;-0.270264;-0.919678;0.075684
16.905619;-0.290771;-0.945312;0.079834
16.905704;-0.297363;-0.937012;0.087891
17.003115;-0.305664;-0.922607;0.073730
17.003248;-0.298096;-0.928711;0.091553
17.003344;-0.298828;-0.836670;0.069092
17.003429;-0.243164;-0.989990;0.064453
17.100334;-0.245361;-0.927246;0.081543
17.100475;-0.220703;-1.043213;0.045410
17.100569;-0.190918;-1.033691;0.014893
17.100655;-0.213867;-0.914062;0.001221
17.198524;-0.199219;-0.852539;-0.000244
17.198647;-0.168457;-0.913818;-0.008545
17.198736;-0.167969;-0.963379;-0.011230
17.198824;-0.167969;-0.982666;0.045654
17.784044;-0.235352;-0.924316;0.042236
17.784193;-0.269531;-0.934570;0.026611
17.784288;-0.285156;-0.891602;0.004150
17.784374;-0.337158;-0.961670;0.060547
17.785490;-0.320801;-0.971191;0.056396
17.785597;-0.347412;-0.975098;0.092529
17.785681;-0.271973;-0.979736;0.100342
17.785761;-0.255127;-0.933838;0.078613
18.172426;-0.231201;-0.955566;0.033203
18.172573;-0.211670;-0.944092;-0.004150
18.172668;-0.219482;-0.881348;0.010254
18.173069;-0.228516;-0.942871;0.021484
18.174925;-0.210693;-0.955811;0.000732
18.175032;-0.199951;-0.983398;-0.027588
18.175117;-0.206299;-0.960693;-0.014404
18.175201;-0.201904;-0.983154;0.020996
18.176241;-0.213379;-0.928467;0.043457
18.176346;-0.230225;-0.869873;0.068604
18.176428;-0.231201;-0.895020;0.108887
18.176512;-0.240967;-0.893799;0.121094
18.270775;-0.253662;-0.907715;0.114746
18.270910;-0.266113;-0.927979;0.094482
18.271061;-0.288330;-0.943359;0.071045
18.271151;-0.287354;-0.934326;0.066162
18.367958;-0.299072;-1.022461;0.020996
18.368162;-0.230469;-1.085938;-0.015381
18.368259;-0.207275;-1.050293;-0.025635
18.368345;-0.235107;-0.814209;0.037598
18.465853;-0.190430;-0.855713;0.049805
18.466026;-0.174805;-0.945068;0.004639
18.466312;-0.141846;-0.962402;-0.039795
18.466410;-0.146484;-0.905518;-0.017578
18.467434;-0.177490;-0.934814;0.014893
18.467728;-0.205322;-1.013672;0.049561
18.467850;-0.198486;-0.987549;0.072021
18.467958;-0.191406;-0.939453;0.069336
18.563343;-0.202148;-0.949463;0.037354
18.563473;-0.190918;-0.991211;0.028809
18.563566;-0.193848;-0.933350;0.027832
18.563707;-0.134766;-0.990723;0.003418
18.757639;-0.116943;-0.951172;0.029785
18.757788;-0.096191;-0.982422;0.011719
18.757879;-0.055664;-0.933838;0.000000
18.758509;-0.134521;-0.988770;0.068604
18.759762;-0.139404;-0.983154;0.081787
18.759865;-0.161621;-0.861816;0.068359
18.759953;-0.126953;-0.989990;0.091064
18.760036;-0.169189;-0.989502;0.088867
18.856564;-0.136963;-0.966064;0.067627
18.856709;-0.145996;-0.937256;-0.026855
18.856798;-0.181396;-0.990967;0.018311
18.856888;-0.135498;-0.998779;0.064453
19.441433;-0.106689;-1.008789;0.062256
19.441561;-0.114746;-0.875488;0.012939
19.441654;-0.149902;-0.980957;0.065186
19.441740;-0.132080;-0.910156;0.135986
19.442629;-0.110840;-0.906982;0.090576
19.442734;-0.140137;-0.884033;0.093994
19.442818;-0.149658;-0.976807;0.057129
19.442902;-0.210693;-0.936035;0.000977
19.538372;-0.259521;-0.988037;-0.032227
19.538841;-0.307373;-0.927979;-0.029785
19.538948;-0.285889;-0.956055;-0.021484
19.539343;-0.268311;-0.991943;0.041504
19.540651;-0.226807;-0.954346;0.083008
19.540760;-0.199219;-0.952637;0.054443
19.540846;-0.213867;-0.945557;0.114746
19.540930;-0.221924;-0.894287;0.149414
19.733625;-0.244629;-0.905518;0.180176
19.733772;-0.253418;-0.946777;0.181641
19.733866;-0.260254;-0.904785;0.175781
19.733953;-0.276611;-0.935059;0.200684
19.736200;-0.223389;-0.930420;0.212891
19.736292;-0.235840;-0.893555;0.202393
19.736376;-0.191406;-0.907959;0.196777
19.736471;-0.154541;-0.952148;0.175293
19.737356;-0.140137;-0.933838;0.172852
19.737457;-0.134766;-0.935059;0.165283
19.737539;-0.183838;-0.965332;0.160645
19.737625;-0.211426;-0.939453;0.175293
19.927999;-0.204346;-0.951660;0.180664
19.928137;-0.192871;-0.937988;0.146240
19.928230;-0.182129;-0.943359;0.138428
19.928316;-0.186523;-0.954102;0.132568
20.025736;-0.196289;-0.927979;0.130615
20.025854;-0.206299;-0.955078;0.141357
20.025946;-0.223145;-0.960938;0.168945
20.026031;-0.214600;-0.929443;0.172363
20.122801;-0.214844;-0.916504;0.168701
20.122940;-0.210693;-0.950439;0.165771
20.123034;-0.175293;-0.949707;0.196289
20.123119;-0.148193;-0.934570;0.177979
20.317919;-0.158691;-0.981445;0.154785
20.318064;-0.187500;-0.907227;0.118896
20.318155;-0.189941;-0.953125;0.130615
20.318243;-0.206299;-0.936768;0.162598
20.416080;-0.227783;-0.948242;0.202393
20.416222;-0.237061;-0.945312;0.219971
20.416319;-0.232422;-0.912598;0.230713
20.416409;-0.205322;-0.905029;0.234375
20.513454;-0.205078;-0.917236;0.208252
20.513575;-0.184570;-0.947510;0.172119
20.513680;-0.193115;-0.942139;0.152588
20.513767;-0.202148;-0.963379;0.154053
20.721415;-0.215576;-0.951172;0.193115
20.722158;-0.203369;-0.921387;0.228760
20.722290;-0.219482;-0.905762;0.234131
20.722437;-0.219727;-0.925537;0.213867
20.805878;-0.214355;-0.933350;0.193115
20.806250;-0.213135;-0.918701;0.206787
20.806372;-0.229248;-0.931641;0.217773
20.806461;-0.244629;-0.927002;0.227295
21.000402;-0.245605;-0.913086;0.227539
21.000551;-0.240967;-0.907227;0.223633
21.000654;-0.227783;-0.930664;0.215332
21.000736;-0.210693;-0.938721;0.208008
21.001776;-0.206055;-0.941406;0.200439
21.001892;-0.210938;-0.930908;0.204834
21.001995;-0.210938;-0.930908;0.209229
21.002079;-0.215332;-0.931641;0.208740
21.586042;-0.207764;-0.935791;0.221436
21.586334;-0.212646;-0.922607;0.221924
21.586430;-0.207764;-0.925781;0.226074
21.586521;-0.200195;-0.924805;0.233643
21.682667;-0.194824;-0.926025;0.233643
21.682810;-0.192627;-0.906738;0.234619
21.682905;-0.188477;-0.917480;0.226318
21.682991;-0.193115;-0.928955;0.215088
21.780256;-0.191162;-0.944824;0.206787
21.780420;-0.190674;-0.940186;0.212158
21.780516;-0.200684;-0.925049;0.214844
21.780609;-0.200928;-0.928955;0.224121
21.879255;-0.194092;-0.929932;0.224121
21.879412;-0.184082;-0.930420;0.207764
21.879505;-0.179199;-0.939697;0.197754
21.879593;-0.177979;-0.931885;0.210205
21.975031;-0.192383;-0.935059;0.216553
21.975170;-0.196533;-0.927246;0.222412
21.975578;-0.196533;-0.922852;0.225830
21.975674;-0.191406;-0.923584;0.216309
21.978218;-0.193115;-0.930420;0.213135
21.978331;-0.187500;-0.936279;0.220947
21.978418;-0.183594;-0.935791;0.217285
21.978502;-0.178711;-0.935547;0.207764
21.979845;-0.175537;-0.934814;0.212646
21.979939;-0.181641;-0.932861;0.218262
21.980024;-0.187256;-0.934570;0.222412
21.980106;-0.198730;-0.933350;0.228271
22.072855;-0.200928;-0.923340;0.223877
22.072990;-0.199219;-0.922607;0.221191
22.073084;-0.203613;-0.926270;0.221191
22.073168;-0.203613;-0.928223;0.234375
22.170753;-0.204346;-0.924561;0.235107
22.170889;-0.209961;-0.921875;0.228760
22.170982;-0.212891;-0.923096;0.230713
22.171066;-0.215820;-0.922363;0.230225
22.267990;-0.216797;-0.926758;0.230957
22.268143;-0.212891;-0.928711;0.230225
22.268234;-0.200195;-0.929443;0.225830
22.268320;-0.195068;-0.924805;0.217529
22.462879;-0.202881;-0.924072;0.218750
22.463017;-0.208252;-0.927979;0.226074
22.463108;-0.207764;-0.928223;0.243408
22.463194;-0.217285;-0.929688;0.229736
22.560680;-0.205566;-0.919678;0.225098
22.560808;-0.195068;-0.927246;0.212158
22.560902;-0.197998;-0.933838;0.209473
22.560987;-0.197754;-0.937012;0.213867
22.657875;-0.200195;-0.926514;0.220947
22.658012;-0.205322;-0.931641;0.221191
22.658106;-0.200195;-0.923340;0.226074
22.658192;-0.196777;-0.930420;0.215576
22.852886;-0.194336;-0.933105;0.211426
22.853024;-0.199707;-0.934326;0.222168
22.853115;-0.204102;-0.927246;0.229980
22.853201;-0.196777;-0.928467;0.226562
22.950684;-0.191406;-0.922363;0.221191
22.950811;-0.201660;-0.933350;0.210205
22.950907;-0.198730;-0.935791;0.213623
22.950993;-0.200928;-0.933350;0.217529
23.047876;-0.204834;-0.927734;0.225342
23.048012;-0.205566;-0.926025;0.227295
23.048105;-0.208740;-0.924805;0.224121
23.048191;-0.203857;-0.930420;0.217773
23.146112;-0.199219;-0.929932;0.220703
23.146254;-0.199219;-0.927734;0.225098
23.146347;-0.197266;-0.927246;0.227783
23.146435;-0.198975;-0.926514;0.229980
23.925676;-0.204102;-0.927734;0.222900
23.925831;-0.198242;-0.930908;0.221191
23.925940;-0.193604;-0.927979;0.225586
23.926025;-0.193604;-0.926270;0.228027
23.927290;-0.198975;-0.931885;0.227051
23.927395;-0.200195;-0.923096;0.222656
23.927479;-0.196777;-0.931396;0.215332
23.927563;-0.194580;-0.931641;0.214844
24.022751;-0.197510;-0.936523;0.220703
24.022890;-0.198730;-0.929443;0.226318
24.022985;-0.196777;-0.930176;0.226074
24.023073;-0.194092;-0.928467;0.222900
24.120192;-0.195557;-0.929932;0.220459
24.120331;-0.189941;-0.931396;0.218018
24.120424;-0.185059;-0.929688;0.220703
24.120512;-0.188232;-0.933838;0.219727
24.217585;-0.191162;-0.929688;0.225830
24.217728;-0.191162;-0.928467;0.227539
24.217823;-0.192139;-0.928223;0.228027
24.217909;-0.189697;-0.930908;0.219727
24.219471;-0.186523;-0.932373;0.215576
24.219572;-0.186523;-0.936279;0.212158
24.219658;-0.193604;-0.931396;0.223389
24.220053;-0.194336;-0.928467;0.228271
24.315756;-0.198486;-0.927490;0.223145
24.315889;-0.186768;-0.929932;0.212158
24.315983;-0.176514;-0.935791;0.203613
24.316067;-0.170654;-0.938965;0.203613
24.413439;-0.177979;-0.934082;0.218994
24.413906;-0.189697;-0.931885;0.227051
24.414003;-0.187012;-0.929199;0.230225
24.414091;-0.175781;-0.929199;0.221191
24.416044;-0.178467;-0.930908;0.219971
24.416153;-0.191406;-0.929688;0.224609
24.416239;-0.196045;-0.924316;0.225586
24.416323;-0.195312;-0.928467;0.224365
24.509867;-0.193115;-0.933594;0.223633
24.510006;-0.191162;-0.935059;0.224121
24.510099;-0.177979;-0.933838;0.218750
24.510185;-0.173828;-0.926514;0.222168
24.608219;-0.181396;-0.927490;0.225342
24.608349;-0.183594;-0.935059;0.224365
24.608440;-0.183350;-0.937744;0.214355
24.608528;-0.181885;-0.936035;0.210205
24.705408;-0.185303;-0.936035;0.215576
24.705545;-0.186768;-0.931885;0.223389
24.705639;-0.183350;-0.929932;0.225342
24.705723;-0.183838;-0.931885;0.219238
24.803379;-0.181885;-0.934814;0.213379
24.803503;-0.186523;-0.934570;0.216553
24.803593;-0.185547;-0.929443;0.221680
24.803679;-0.184082;-0.930176;0.220459
24.900387;-0.184082;-0.930176;0.223633
24.900524;-0.179443;-0.932373;0.217773
24.900616;-0.179443;-0.932861;0.218506
24.900702;-0.184570;-0.929688;0.221924
25.095737;-0.182861;-0.931885;0.217529
25.095858;-0.186768;-0.934326;0.212646
25.095947;-0.178955;-0.930176;0.219727
25.096031;-0.183350;-0.933105;0.221191
25.194407;-0.188721;-0.929443;0.223633
25.194515;-0.184570;-0.930908;0.219971
25.195477;-0.189941;-0.935791;0.216553
25.195578;-0.191650;-0.933594;0.225586
25.290499;-0.196289;-0.926514;0.224609
25.290651;-0.197021;-0.922607;0.228516
25.290747;-0.190430;-0.927246;0.229492
25.290834;-0.179688;-0.936279;0.221191
25.485617;-0.179688;-0.931396;0.218506
25.485756;-0.185303;-0.930664;0.221191
25.485849;-0.186768;-0.931396;0.221191
25.485935;-0.187500;-0.931885;0.219971
25.680260;-0.191162;-0.930176;0.223389
25.680399;-0.194336;-0.928711;0.225586
25.680820;-0.196045;-0.930420;0.221191
25.680918;-0.193115;-0.931152;0.218018
25.682053;-0.194824;-0.932373;0.220459
25.682159;-0.199219;-0.932129;0.221436
25.682243;-0.197754;-0.930176;0.225830
25.682327;-0.190186;-0.925293;0.227783
25.875494;-0.189209;-0.928467;0.225342
25.875631;-0.186035;-0.930420;0.222412
25.875725;-0.182617;-0.931152;0.220947
25.875809;-0.187012;-0.933105;0.219238
25.973225;-0.195557;-0.930664;0.224609
25.973351;-0.189453;-0.929443;0.226074
25.973446;-0.185303;-0.927246;0.223145
25.973534;-0.190918;-0.931152;0.220947
26.169930;-0.197754;-0.934082;0.221924
26.170029;-0.197754;-0.933594;0.220947
26.170115;-0.195312;-0.932129;0.221924
26.170197;-0.195068;-0.931152;0.223877
26.171515;-0.193115;-0.928467;0.225586
26.171598;-0.191895;-0.927979;0.223633
26.171682;-0.189453;-0.930176;0.222412
26.171764;-0.190918;-0.929932;0.223633
26.753164;-0.192139;-0.928711;0.226074
26.753311;-0.194824;-0.929199;0.224121
26.753401;-0.193115;-0.929199;0.222168
26.753483;-0.192383;-0.927979;0.226807
26.849840;-0.196533;-0.931152;0.223633
26.850172;-0.198730;-0.928467;0.224854
26.850290;-0.192139;-0.928711;0.223389
26.850378;-0.189209;-0.928711;0.223877
26.851038;-0.191650;-0.930176;0.226074
26.851198;-0.192383;-0.927490;0.226807
26.851294;-0.196533;-0.932617;0.219482
26.851393;-0.193115;-0.930908;0.221191
26.947727;-0.188721;-0.928711;0.226807
26.947872;-0.192383;-0.928711;0.227051
26.947966;-0.192383;-0.929443;0.224121
26.948051;-0.193848;-0.933838;0.218262
27.045898;-0.197510;-0.932861;0.221191
27.046740;-0.197754;-0.927002;0.229004
27.047287;-0.194092;-0.925781;0.228027
27.047777;-0.187744;-0.928955;0.221680
27.048260;-0.192139;-0.931396;0.219727
27.048367;-0.194336;-0.931396;0.218262
27.048447;-0.192871;-0.930420;0.218750
27.048523;-0.192627;-0.929199;0.221924
27.143177;-0.191895;-0.931152;0.220459
27.143339;-0.199463;-0.931396;0.223389
27.143436;-0.196777;-0.933350;0.222656
27.143524;-0.200439;-0.930420;0.227295
27.240446;-0.202637;-0.928711;0.229248
27.240595;-0.194336;-0.926270;0.225342
27.240688;-0.180420;-0.925293;0.225586
27.240776;-0.154541;-0.930176;0.217285
27.338085;-0.160889;-0.935059;0.213135
27.338251;-0.179199;-0.928955;0.220703
27.338346;-0.201904;-0.932861;0.230225
27.338432;-0.206055;-0.929199;0.232422
27.435448;-0.201172;-0.926514;0.230225
27.435623;-0.189209;-0.928955;0.224609
27.435717;-0.180176;-0.931152;0.219238
27.435802;-0.181152;-0.934570;0.218018
27.630417;-0.183838;-0.933594;0.219971
27.630589;-0.190186;-0.931641;0.230469
27.630684;-0.198242;-0.927490;0.232910
27.630770;-0.200684;-0.927246;0.231689
27.826117;-0.190186;-0.926514;0.233398
27.826258;-0.176758;-0.928223;0.228271
27.826353;-0.175049;-0.931396;0.216309
27.826441;-0.174072;-0.932129;0.221191
27.922194;-0.171875;-0.935059;0.216309
27.922680;-0.172119;-0.931152;0.217285
27.922773;-0.179443;-0.925781;0.224609
27.923182;-0.183350;-0.930908;0.223877
27.924906;-0.188232;-0.935059;0.222900
27.925011;-0.191650;-0.934570;0.220215
27.925095;-0.189941;-0.936035;0.217529
27.925179;-0.184570;-0.934326;0.218506
28.606380;-0.179688;-0.930664;0.219238
28.606535;-0.177246;-0.929932;0.220947
28.606630;-0.185303;-0.929688;0.220947
28.606716;-0.189697;-0.933105;0.218506
28.702168;-0.189941;-0.935791;0.217041
28.702307;-0.184814;-0.931152;0.218506
28.702400;-0.189453;-0.930908;0.222656
28.702486;-0.191406;-0.930908;0.223633
28.898411;-0.187988;-0.932617;0.217285
28.898882;-0.181641;-0.931396;0.219238
28.898977;-0.182617;-0.933838;0.220703
28.899063;-0.185059;-0.931641;0.219971
28.900368;-0.185059;-0.933350;0.218994
28.900867;-0.187988;-0.931885;0.218994
28.900974;-0.181152;-0.929688;0.216064
28.901056;-0.176270;-0.931641;0.214600
28.994797;-0.176758;-0.934326;0.218506
28.995285;-0.185303;-0.932861;0.220703
28.995390;-0.189697;-0.931152;0.220703
28.995476;-0.182861;-0.931396;0.217041
28.996420;-0.179932;-0.933105;0.217529
28.996525;-0.179443;-0.931885;0.221436
28.996611;-0.179932;-0.928467;0.221680
28.996695;-0.182129;-0.929443;0.219971
29.093775;-0.183105;-0.932617;0.222656
29.093887;-0.180176;-0.933594;0.219727
29.093979;-0.178955;-0.933350;0.217041
29.094063;-0.178223;-0.933350;0.218262
29.190845;-0.173828;-0.934814;0.221436
29.190987;-0.182861;-0.928711;0.222168
29.191080;-0.186523;-0.929932;0.219971
29.191166;-0.185791;-0.933838;0.219482
29.287930;-0.178955;-0.931885;0.218018
29.288069;-0.174072;-0.936279;0.214600
29.288506;-0.170898;-0.936523;0.214844
29.288601;-0.172119;-0.932129;0.219727
29.289734;-0.181152;-0.932129;0.222412
29.289837;-0.181641;-0.933594;0.221924
29.289923;-0.178711;-0.933350;0.215088
29.290005;-0.173340;-0.936035;0.218018
29.385899;-0.175537;-0.931396;0.222900
29.386028;-0.182861;-0.929688;0.225098
29.386122;-0.179688;-0.928955;0.223389
29.386209;-0.172852;-0.932861;0.218506
29.518522;-0.177490;-0.933350;0.222900
29.518703;-0.179932;-0.928223;0.226318
29.518808;-0.175293;-0.930420;0.218018
29.518904;-0.176270;-0.933105;0.216309
29.581285;-0.177979;-0.932129;0.217285
29.581413;-0.180176;-0.931641;0.219238
29.581509;-0.180664;-0.930908;0.225830
29.581596;-0.181641;-0.932129;0.222900
30.166534;-0.185547;-0.933594;0.217773
30.166681;-0.185547;-0.932861;0.216553
30.166779;-0.182861;-0.929443;0.220947
30.167179;-0.187988;-0.928711;0.226807
30.168583;-0.190430;-0.931641;0.221924
30.168682;-0.185547;-0.929443;0.221191
30.168768;-0.179443;-0.931396;0.220459
30.168850;-0.183105;-0.933350;0.221680
30.263502;-0.186279;-0.927979;0.228027
30.263960;-0.188232;-0.930908;0.221924
30.264055;-0.181641;-0.931641;0.218994
30.264147;-0.184570;-0.931152;0.221680
30.265923;-0.184082;-0.929443;0.223389
30.266033;-0.186523;-0.927490;0.224121
30.266119;-0.188721;-0.929443;0.224121
30.266203;-0.188721;-0.933105;0.221924
30.360126;-0.185303;-0.929932;0.220947
30.360270;-0.183105;-0.931641;0.219971
30.360365;-0.189941;-0.932129;0.221924
30.360453;-0.192139;-0.930908;0.221191
30.361969;-0.189697;-0.932373;0.220703
30.362070;-0.186523;-0.929199;0.221436
30.362156;-0.189697;-0.930420;0.224854
30.362244;-0.190918;-0.930420;0.220703
30.457973;-0.189697;-0.930908;0.219727
30.458109;-0.185547;-0.927979;0.221680
30.458200;-0.185791;-0.928955;0.222168
30.458284;-0.191406;-0.929443;0.222412
30.652967;-0.192383;-0.930664;0.218018
30.653107;-0.191895;-0.932617;0.216797
30.653196;-0.188477;-0.932617;0.219971
30.653284;-0.191162;-0.929932;0.224365
30.751011;-0.189209;-0.927002;0.223633
30.751139;-0.189209;-0.930664;0.220947
30.751232;-0.188965;-0.930664;0.219971
30.751320;-0.187988;-0.929932;0.221436
30.847992;-0.191406;-0.927979;0.223145
30.848129;-0.193115;-0.928467;0.223877
30.848223;-0.191895;-0.929199;0.221680
30.848307;-0.190918;-0.934082;0.219482
30.945820;-0.190674;-0.930664;0.218506
30.945938;-0.190186;-0.929688;0.221680
30.946030;-0.192871;-0.928467;0.226074
30.946115;-0.192871;-0.929443;0.224609
31.140787;-0.188965;-0.931885;0.222412
31.140915;-0.187744;-0.929932;0.223633
31.141008;-0.188721;-0.930664;0.220947
31.141094;-0.190674;-0.928711;0.223389
31.238089;-0.187256;-0.930908;0.224121
31.238224;-0.187988;-0.930664;0.222656
31.238317;-0.188721;-0.930664;0.221191
31.238403;-0.191650;-0.929443;0.221924
31.335985;-0.188721;-0.927979;0.226562
31.336103;-0.190430;-0.929443;0.225342
31.336197;-0.192871;-0.928955;0.224609
31.336281;-0.191650;-0.928711;0.224365
31.921732;-0.188965;-0.926514;0.225830
31.921883;-0.186768;-0.929932;0.223633
31.921976;-0.185547;-0.931641;0.218506
31.922062;-0.191895;-0.933838;0.216797
31.923759;-0.196533;-0.932373;0.217773
31.923861;-0.197021;-0.927246;0.223633
31.923939;-0.192627;-0.929443;0.224121
31.924429;-0.185303;-0.927979;0.225830
32.018513;-0.183350;-0.933838;0.219971
32.018661;-0.184326;-0.931641;0.216553
32.018757;-0.186523;-0.931885;0.218994
32.018993;-0.190186;-0.930420;0.223145
32.118366;-0.185547;-0.926025;0.227783
32.118500;-0.181396;-0.925049;0.225830
32.118591;-0.188477;-0.931152;0.219727
32.118683;-0.190430;-0.933105;0.220947
32.120117;-0.189697;-0.934570;0.218018
32.120216;-0.181641;-0.932129;0.219482
32.120300;-0.187744;-0.931396;0.217285
32.120384;-0.198730;-0.933105;0.221924
32.121826;-0.198486;-0.926514;0.226318
32.121925;-0.184326;-0.923828;0.223877
32.122009;-0.180176;-0.925293;0.224609
32.122093;-0.176025;-0.927490;0.216064
32.213444;-0.173340;-0.934082;0.207031
32.213566;-0.165283;-0.936523;0.205322
32.213669;-0.178223;-0.950928;0.191895
32.213753;-0.198242;-0.946777;0.199219
32.408024;-0.204590;-0.936768;0.206055
32.408161;-0.206055;-0.931885;0.215332
32.408257;-0.185303;-0.917480;0.214111
32.408340;-0.176758;-0.920654;0.206055
32.505894;-0.156006;-0.955811;0.184814
32.506023;-0.129883;-0.962891;0.161865
32.506119;-0.112305;-0.962646;0.155518
32.506207;-0.117432;-0.955811;0.150879
32.603012;-0.132568;-0.949463;0.139648
32.603153;-0.146240;-0.943848;0.151367
32.603245;-0.146240;-0.932373;0.199219
32.603329;-0.142334;-0.948730;0.163330
33.188633;-0.136963;-0.946533;0.150879
33.189106;-0.143311;-0.949951;0.120117
33.189205;-0.158447;-0.940674;0.142578
33.189293;-0.166260;-0.946533;0.154785
33.190990;-0.154785;-0.952881;0.075439
33.191090;-0.158936;-0.898438;0.099609
33.191177;-0.154785;-0.995605;0.089844
33.191257;-0.166504;-0.951660;-0.000488
33.286034;-0.163086;-0.982178;-0.088623
33.286156;-0.158203;-1.000244;-0.150391
33.286247;-0.179932;-0.947754;-0.095947
33.286331;-0.156494;-0.987549;-0.114258
33.383972;-0.146484;-0.900635;-0.109375
33.384121;-0.170654;-0.945068;-0.013916
33.384232;-0.150879;-0.947754;-0.074463
33.384640;-0.163330;-1.031494;-0.141602
33.385895;-0.269775;-0.782959;0.040771
33.386555;-0.101318;-0.813721;0.073975
33.386665;-0.090820;-0.996582;0.010254
33.386749;-0.005615;-1.030762;-0.167725
33.479897;-0.048340;-1.072998;-0.219727
33.480381;-0.177002;-0.757568;-0.110352
33.480484;-0.121094;-0.980957;0.084961
33.480572;-0.204102;-0.977539;0.103760
33.481522;-0.213135;-0.836914;0.118652
33.481628;-0.252441;-1.010498;0.039062
33.481716;-0.219482;-0.969971;0.129395
33.481800;-0.079590;-0.774170;0.017090
33.675617;-0.082764;-1.050781;-0.091064
33.675758;-0.118408;-1.046143;-0.062256
33.675850;-0.157471;-0.979004;-0.004883
33.675938;-0.162598;-0.911133;0.066406
33.773388;-0.166016;-0.934570;0.081299
33.773506;-0.164307;-0.954834;0.076904
33.773598;-0.169678;-0.959473;0.049805
33.773682;-0.170166;-0.952393;0.032959
33.871220;-0.165771;-0.961426;0.018799
33.871338;-0.166016;-0.960938;0.005127
33.871429;-0.164062;-0.965820;0.010986
33.871513;-0.165527;-0.959473;0.027832
34.162743;-0.166992;-0.952393;0.027344
34.162884;-0.162598;-0.958496;0.013428
34.162975;-0.158203;-0.967041;0.001953
34.163063;-0.164307;-0.962158;0.008301
34.163994;-0.159424;-0.959229;0.006836
34.164101;-0.157959;-0.961670;0.008545
34.164188;-0.162109;-0.960449;0.006104
34.164272;-0.162598;-0.957520;0.006836
34.261028;-0.164551;-0.958252;0.010010
34.261150;-0.164795;-0.959229;0.018066
34.261238;-0.166260;-0.958984;0.016357
34.261326;-0.168213;-0.959473;0.010010
34.358528;-0.163086;-0.961182;0.005127
34.358650;-0.160400;-0.959473;0.006348
34.358742;-0.158936;-0.958496;0.007812
34.358829;-0.159180;-0.962646;0.005615
34.945076;-0.156738;-0.958740;0.008301
34.945210;-0.161377;-0.954590;0.007812
34.945301;-0.160400;-0.958740;0.009521
34.945389;-0.160400;-0.959473;0.009766
34.946434;-0.163086;-0.958008;0.007812
34.946526;-0.165527;-0.963379;0.002930
34.946602;-0.166260;-0.958984;0.004639
34.946678;-0.160645;-0.959961;0.010986
35.040726;-0.160889;-0.958008;0.009277
35.040863;-0.164551;-0.959473;0.004639
35.040958;-0.164062;-0.959229;0.007080
35.041042;-0.161621;-0.962158;0.006836
35.139996;-0.159424;-0.959473;0.009277
35.140106;-0.161865;-0.957764;0.014893
35.141068;-0.167969;-0.960205;0.011230
35.141155;-0.166016;-0.958496;0.010498
35.141331;-0.163574;-0.955566;0.010742
35.141422;-0.161133;-0.958984;0.012695
35.141964;-0.160156;-0.963135;0.005371
35.142048;-0.160156;-0.963379;0.001221
35.235542;-0.159180;-0.961426;0.001221
35.235676;-0.160400;-0.956787;0.005371
35.236118;-0.159668;-0.959473;0.007080
35.236214;-0.159912;-0.960693;0.006104
35.237156;-0.159912;-0.960449;0.006592
35.237259;-0.158936;-0.959229;0.008057
35.237347;-0.158691;-0.959961;0.007812
35.237431;-0.160645;-0.959717;0.006592
35.430679;-0.161865;-0.958740;0.005371
35.430817;-0.156982;-0.960205;0.007324
35.430908;-0.156494;-0.959229;0.007080
35.430996;-0.161133;-0.961426;0.002197
35.528397;-0.163330;-0.959229;0.007324
35.528526;-0.163818;-0.957031;0.010498
35.528618;-0.162109;-0.958984;0.008789
35.528702;-0.160889;-0.957520;0.009766
35.625565;-0.158936;-0.959229;0.010010
35.625702;-0.159912;-0.961670;0.005127
35.625793;-0.159180;-0.959473;0.009521
35.625881;-0.161133;-0.956787;0.010010
35.821018;-0.160645;-0.960205;0.010010
35.821144;-0.156006;-0.959961;0.009277
35.821239;-0.157227;-0.962158;0.000977
35.821327;-0.155273;-0.958252;0.001221
35.918381;-0.157715;-0.958740;0.010010
35.918507;-0.161865;-0.958496;0.012451
35.918602;-0.163330;-0.960938;0.006836
35.918690;-0.162354;-0.958496;0.007568
36.015671;-0.159668;-0.958496;0.009521
36.015804;-0.157959;-0.960205;0.007568
36.016064;-0.155273;-0.958252;0.012207
36.016151;-0.155518;-0.958252;0.010498
36.113544;-0.157959;-0.962402;0.005127
36.113667;-0.158691;-0.958008;0.005615
36.113758;-0.158447;-0.959473;0.008789
36.113842;-0.156250;-0.961670;0.007812
36.698624;-0.155273;-0.961426;0.008057
36.698757;-0.155762;-0.958008;0.007568
36.698849;-0.158691;-0.960449;0.005615
36.698936;-0.156494;-0.958252;0.007812
36.795597;-0.153564;-0.958252;0.010010
36.795734;-0.154541;-0.962402;0.006348
36.795826;-0.153320;-0.958984;0.008545
36.795914;-0.154053;-0.960693;0.005615
36.893658;-0.154053;-0.961426;0.005127
36.893787;-0.155762;-0.960449;0.008789
36.893879;-0.158691;-0.961182;0.005371
36.893967;-0.157959;-0.959961;0.005615
36.990780;-0.155518;-0.960449;0.006348
36.990917;-0.155762;-0.962402;0.005127
36.991013;-0.153809;-0.959229;0.009033
36.991096;-0.151855;-0.958008;0.009277
37.088238;-0.153809;-0.961914;0.006348
37.088383;-0.153564;-0.958008;0.008545
37.088478;-0.156738;-0.962646;0.006104
37.088577;-0.157959;-0.959229;0.005615
37.186268;-0.155762;-0.961914;0.004150
37.186417;-0.153320;-0.955811;0.010254
37.186512;-0.155762;-0.958252;0.007324
37.186600;-0.157959;-0.963135;0.006104
37.284344;-0.156006;-0.964355;0.000732
37.284630;-0.155762;-0.961182;0.003174
37.284725;-0.155518;-0.957031;0.004883
37.284813;-0.155762;-0.960938;0.007080
37.286362;-0.153809;-0.959229;0.011230
37.286922;-0.155762;-0.962158;0.006348
37.287029;-0.154297;-0.958984;0.002197
37.287117;-0.156250;-0.955811;0.007568
37.287201;-0.156494;-0.958252;0.007812
37.287281;-0.159424;-0.960938;0.003174
37.287365;-0.157715;-0.960693;0.006592
37.287449;-0.157959;-0.958984;0.003906
37.478130;-0.157471;-0.962158;0.003906
37.478268;-0.158203;-0.960449;0.004150
37.478359;-0.156738;-0.959229;0.006592
37.478447;-0.157715;-0.960938;0.005615
37.576485;-0.157227;-0.960938;0.003906
37.576591;-0.158447;-0.958496;0.006592
37.576683;-0.155518;-0.959717;0.008789
37.576771;-0.157471;-0.960205;0.005859
37.673126;-0.161133;-0.958496;0.005859
37.673264;-0.158447;-0.960205;0.007812
37.673355;-0.157959;-0.960449;0.005859
37.673439;-0.158936;-0.959961;0.004150
37.771049;-0.158447;-0.959473;0.007080
37.771172;-0.156982;-0.960449;0.006836
37.771259;-0.159424;-0.960449;0.006104
37.771347;-0.161133;-0.958984;0.006104
38.356419;-0.156982;-0.957275;0.008057
38.356911;-0.157959;-0.964355;0.002197
38.357010;-0.159180;-0.961670;0.001465
38.357094;-0.157959;-0.956543;0.007080
38.358330;-0.155273;-0.955322;0.009766
38.358437;-0.160400;-0.960693;0.003906
38.358521;-0.162842;-0.963379;0.000000
38.358604;-0.161865;-0.961426;0.000977
38.453560;-0.160156;-0.957520;0.005615
38.453686;-0.158691;-0.959961;0.005859
38.453773;-0.158447;-0.959229;0.005859
38.453857;-0.158447;-0.962646;0.001465
38.551579;-0.158447;-0.961182;0.003418
38.551720;-0.156006;-0.958008;0.007568
38.551815;-0.159668;-0.960449;0.005615
38.552223;-0.159180;-0.963623;0.002197
38.553936;-0.159912;-0.961426;0.001709
38.554035;-0.163086;-0.958008;0.006592
38.554119;-0.159424;-0.960938;0.002197
38.554203;-0.159668;-0.960693;0.006348
38.649426;-0.158691;-0.959961;0.008301
38.649555;-0.160156;-0.960938;0.001709
38.649651;-0.160156;-0.961670;-0.000244
38.649822;-0.159424;-0.959229;0.003906
38.651375;-0.159912;-0.961670;0.005615
38.651566;-0.160889;-0.960449;0.003418
38.651653;-0.159668;-0.959717;0.002441
38.651737;-0.159668;-0.959717;0.001709
38.856743;-0.161133;-0.959961;-0.001221
38.856895;-0.160400;-0.961182;0.000244
38.856991;-0.158936;-0.959961;0.002930
38.857075;-0.159424;-0.958008;0.004150
38.941414;-0.158447;-0.961182;0.001953
38.941536;-0.158447;-0.961670;-0.002686
38.941628;-0.157227;-0.959961;0.000977
38.941715;-0.155029;-0.957520;0.005371
39.038532;-0.156738;-0.960449;0.004395
39.038689;-0.156738;-0.960205;0.002930
39.038845;-0.157471;-0.963379;-0.002197
39.038933;-0.158936;-0.960693;0.000000
39.233109;-0.156250;-0.957520;0.002441
39.233250;-0.157715;-0.962402;0.003662
39.233345;-0.155762;-0.960449;0.004639
39.233433;-0.158203;-0.959961;0.004150
39.330467;-0.155029;-0.960205;0.000732
39.330605;-0.154785;-0.959229;0.003418
39.330696;-0.159668;-0.960449;0.004883
39.330780;-0.157715;-0.961182;0.002441
39.428493;-0.158691;-0.961426;0.002686
39.428616;-0.158936;-0.959717;0.003418
39.428707;-0.157959;-0.961426;0.002686
39.428795;-0.155762;-0.958740;0.002441
39.526550;-0.157959;-0.960449;0.003906
39.526665;-0.156982;-0.961426;0.002686
39.526756;-0.154785;-0.959717;0.002441
39.526840;-0.155518;-0.958740;0.001953
40.111271;-0.157227;-0.959961;0.004883
40.111416;-0.156738;-0.961670;0.002930
40.111858;-0.157471;-0.961182;0.002930
40.111946;-0.156006;-0.959717;0.003662
40.113087;-0.156250;-0.958740;0.005371
40.113190;-0.154053;-0.958984;0.001465
40.113274;-0.157715;-0.959717;0.003662
40.113361;-0.156982;-0.960693;0.006592
40.305038;-0.156250;-0.960449;0.003174
40.305534;-0.147461;-0.959717;0.002441
40.305630;-0.149170;-0.960693;-0.000732
40.305717;-0.149414;-0.963379;-0.007324
40.306671;-0.149414;-0.959961;0.002441
40.306778;-0.154785;-0.959717;0.004639
40.306866;-0.154541;-0.961670;-0.000732
40.306950;-0.151611;-0.962646;-0.005859
40.500435;-0.149414;-0.959961;0.000000
40.500580;-0.150635;-0.959717;0.002930
40.500999;-0.151611;-0.960693;0.003174
40.501091;-0.154053;-0.958984;0.005615
40.503391;-0.153076;-0.963379;-0.001465
40.503498;-0.152100;-0.960693;-0.000977
40.503586;-0.150146;-0.958740;0.003174
40.503674;-0.152344;-0.959717;0.003662
40.504959;-0.151855;-0.963135;0.000244
40.505054;-0.150879;-0.960938;-0.000732
40.505138;-0.152588;-0.960938;-0.001465
40.505219;-0.153320;-0.961182;-0.001709
40.599281;-0.152832;-0.960938;0.002930
40.599403;-0.150879;-0.963623;0.001465
40.599506;-0.150146;-0.961426;0.001465
40.599594;-0.154541;-0.959229;0.004639
40.695992;-0.153320;-0.959473;0.003174
40.696121;-0.151611;-0.961914;-0.000732
40.696213;-0.150635;-0.961426;-0.000244
40.696297;-0.150391;-0.963135;0.000732
40.793182;-0.148926;-0.959229;0.002686
40.793320;-0.149902;-0.961670;0.001953
40.793411;-0.149902;-0.961670;-0.001221
40.793495;-0.153320;-0.961914;-0.001465
40.988106;-0.151855;-0.959473;0.003418
40.988243;-0.151123;-0.959961;0.003174
40.988335;-0.149414;-0.961182;-0.000244
40.988419;-0.151611;-0.961914;-0.002930
41.085968;-0.148682;-0.960693;0.000488
41.086094;-0.153320;-0.959229;0.007812
41.086201;-0.154541;-0.960938;0.002686
41.086288;-0.155273;-0.963135;-0.006348
41.183182;-0.156006;-0.960693;-0.000977
41.183319;-0.153320;-0.958496;0.001709
41.183411;-0.151855;-0.961182;0.001465
41.183498;-0.151855;-0.958984;0.005859
41.378216;-0.152588;-0.960938;-0.000488
41.378353;-0.155273;-0.962158;-0.004883
41.378448;-0.154053;-0.957764;0.001465
41.378532;-0.154297;-0.958740;0.002441
41.476307;-0.154541;-0.960938;0.000000
41.476440;-0.154785;-0.958252;0.002686
41.476536;-0.153076;-0.961670;-0.001221
41.476624;-0.154053;-0.962158;-0.001221
41.574104;-0.151367;-0.961670;0.002441
41.574226;-0.150146;-0.959961;0.001709
41.574314;-0.152100;-0.962646;-0.001221
41.574474;-0.154541;-0.958740;0.003906
41.675701;-0.156006;-0.959717;0.002197
41.675861;-0.157715;-0.961914;0.002930
41.675957;-0.157715;-0.960449;0.005615
41.676044;-0.156982;-0.959717;0.004150
42.353554;-0.154541;-0.960449;0.002930
42.353703;-0.156250;-0.958496;0.002441
42.353798;-0.154541;-0.958496;0.003174
42.353886;-0.152588;-0.958008;0.004883
42.355591;-0.153564;-0.963623;0.000977
42.355686;-0.156738;-0.961182;-0.000244
42.355770;-0.156982;-0.958252;0.003906
42.355854;-0.154785;-0.954346;0.006592
42.356678;-0.158691;-0.961182;0.004150
42.356777;-0.163330;-0.963623;-0.003174
42.356861;-0.160645;-0.961670;-0.000977
42.356945;-0.157959;-0.959229;0.002441
42.451675;-0.154297;-0.957275;0.004395
42.451790;-0.153320;-0.959717;0.004150
42.451881;-0.153076;-0.958740;0.002197
42.452297;-0.154785;-0.960938;-0.000732
42.453587;-0.154541;-0.958252;0.000732
42.453678;-0.155518;-0.959473;0.002686
42.453766;-0.159912;-0.960693;0.003174
42.453846;-0.157227;-0.958984;0.001709
42.547878;-0.156250;-0.961182;0.001465
42.548004;-0.156982;-0.961670;-0.000244
42.548100;-0.158691;-0.960205;0.003418
42.548668;-0.156494;-0.959473;0.002686
42.549904;-0.158203;-0.959229;0.000977
42.549992;-0.158203;-0.961182;-0.000977
42.550076;-0.154785;-0.960449;-0.002197
42.550159;-0.156250;-0.961914;-0.003906
42.743980;-0.155518;-0.959473;0.000488
42.744102;-0.156494;-0.959473;0.000000
42.744190;-0.156494;-0.963379;-0.001953
42.744278;-0.152832;-0.958740;0.002441
42.840855;-0.156738;-0.960938;0.002441
42.840992;-0.155518;-0.960938;-0.001953
42.841084;-0.154053;-0.959717;0.001953
42.841171;-0.154785;-0.955078;0.008545
42.938694;-0.155762;-0.957031;0.007812
42.938816;-0.157959;-0.963379;-0.001709
42.938908;-0.156250;-0.963867;-0.003418
42.938992;-0.159180;-0.961426;-0.000732
43.523933;-0.159668;-0.958252;0.005371
43.524075;-0.156982;-0.961426;0.006104
43.524632;-0.153320;-0.958740;0.007080
43.524727;-0.154541;-0.962402;-0.000732
43.525879;-0.153320;-0.960938;-0.000244
43.525982;-0.151855;-0.960449;0.002441
43.526077;-0.155273;-0.961914;0.001953
43.526161;-0.156006;-0.960938;0.003662
43.623222;-0.153564;-0.959717;0.003906
43.623341;-0.155518;-0.960449;0.002441
43.623436;-0.154785;-0.959717;0.003906
43.623524;-0.155273;-0.961426;0.002930
43.623604;-0.153076;-0.959961;0.001709
43.624477;-0.152344;-0.959717;0.002441
43.624577;-0.152100;-0.959229;0.002441
43.624660;-0.154541;-0.959961;0.004639
43.718914;-0.153564;-0.960449;0.003418
43.719391;-0.152832;-0.959229;0.003174
43.719494;-0.151855;-0.960449;0.002197
43.719582;-0.152588;-0.962646;-0.000244
43.721073;-0.151367;-0.958984;0.003418
43.721176;-0.154297;-0.961670;0.004150
43.721607;-0.153320;-0.959473;0.002197
43.721710;-0.154053;-0.961670;-0.001709
43.815884;-0.153809;-0.957031;0.006104
43.816036;-0.153076;-0.959717;0.008301
43.816132;-0.152344;-0.962158;0.000732
43.816219;-0.151123;-0.963623;-0.005615
44.010773;-0.151123;-0.959717;0.001953
44.010914;-0.153320;-0.957275;0.004150
44.011005;-0.150391;-0.961426;0.008301
44.011089;-0.151855;-0.958740;0.007080
44.108589;-0.153076;-0.964111;-0.001953
44.108715;-0.152832;-0.960205;-0.000244
44.108810;-0.155273;-0.957031;0.004639
44.108894;-0.157227;-0.961914;0.004883
44.205784;-0.156738;-0.962402;0.000732
44.205921;-0.155029;-0.959717;0.003906
44.206017;-0.152344;-0.959229;0.003174
44.206100;-0.152100;-0.960449;0.002686
44.499203;-0.156006;-0.959961;0.005859
44.499352;-0.154541;-0.960449;0.003662
44.499451;-0.155029;-0.960693;0.003174
44.499538;-0.158936;-0.959717;0.005615
44.501629;-0.156738;-0.958740;0.004883
44.501740;-0.156006;-0.961426;0.001953
44.501827;-0.153320;-0.960205;0.000732
44.501907;-0.156982;-0.960205;0.004150
44.595886;-0.157715;-0.962402;0.000244
44.596027;-0.156982;-0.960938;0.000488
44.596119;-0.158203;-0.961182;0.003418
44.596203;-0.157959;-0.959717;0.004150
44.693787;-0.156494;-0.961182;0.003174
44.693909;-0.156982;-0.963379;-0.002197
44.694000;-0.156982;-0.960938;0.001953
44.694084;-0.155518;-0.957275;0.005615
45.279350;-0.154785;-0.957764;0.005371
45.279495;-0.156982;-0.964844;-0.002686
45.279919;-0.158447;-0.962891;-0.003174
45.280014;-0.158691;-0.958740;-0.000732
45.281559;-0.154785;-0.958496;0.001709
45.281658;-0.154053;-0.959229;0.007568
45.281757;-0.154541;-0.959473;0.006104
45.281841;-0.155273;-0.961914;0.001709
45.374996;-0.156738;-0.958740;0.000244
45.375134;-0.154785;-0.958252;0.003418
45.375225;-0.159424;-0.960693;0.004150
45.375309;-0.159424;-0.960693;0.003174
45.473137;-0.156738;-0.960693;0.000732
45.473274;-0.157227;-0.961670;0.000000
45.473370;-0.157959;-0.963135;0.000977
45.473454;-0.157471;-0.961182;0.002930
45.571918;-0.157471;-0.960938;0.003418
45.572376;-0.156982;-0.960693;0.002441
45.572472;-0.155762;-0.959717;0.001465
45.572556;-0.157715;-0.960693;0.003906
45.574551;-0.158936;-0.961914;0.001953
45.574657;-0.156982;-0.961670;0.001953
45.574745;-0.158447;-0.959961;0.001709
45.574829;-0.156738;-0.960693;0.002441
45.668465;-0.156006;-0.960938;0.001465
45.668606;-0.156738;-0.961670;0.001465
45.668697;-0.156494;-0.958984;0.002197
45.668781;-0.160400;-0.960938;0.001953
45.765759;-0.161133;-0.961182;0.000244
45.765896;-0.157715;-0.957031;0.001953
45.765987;-0.156738;-0.958008;0.005615
45.766075;-0.155762;-0.962891;0.001953
45.863598;-0.159668;-0.963379;-0.000488
45.863724;-0.162109;-0.960693;-0.001221
45.863831;-0.162598;-0.956055;-0.000244
45.863914;-0.155029;-0.957275;0.002930
45.960842;-0.154785;-0.962158;0.004883
45.960979;-0.157227;-0.961182;0.003174
45.961071;-0.157959;-0.959717;0.000488
45.961159;-0.159424;-0.958008;-0.000732
46.155815;-0.157959;-0.961182;-0.001709
46.155952;-0.159668;-0.962646;-0.002441
46.156044;-0.161865;-0.958984;0.003174
46.156128;-0.161865;-0.959473;0.002930
46.253624;-0.159180;-0.961182;-0.003662
46.253750;-0.159424;-0.961670;-0.002441
46.253845;-0.155273;-0.957764;0.000244
46.253933;-0.154785;-0.960205;0.002441
46.546253;-0.154297;-0.960449;-0.000732
46.546406;-0.153564;-0.958984;0.002930
46.546501;-0.153076;-0.958984;0.000244
46.546928;-0.155273;-0.959961;-0.000488
46.548733;-0.154785;-0.959229;0.000488
46.548832;-0.152588;-0.960449;0.001465
46.548916;-0.154541;-0.959961;0.002930
46.549000;-0.157715;-0.958496;-0.000488
46.741070;-0.156494;-0.959229;0.001465
46.741199;-0.156006;-0.960449;0.000488
46.741295;-0.156250;-0.960938;0.003174
46.741383;-0.155273;-0.962402;-0.000732
46.848759;-0.158447;-0.961182;-0.002197
46.849224;-0.155273;-0.956787;0.002197
46.849575;-0.157715;-0.961670;0.004639
46.849911;-0.156494;-0.961670;0.001465
46.850006;-0.157227;-0.964111;-0.002686
46.850327;-0.153320;-0.959229;0.001221
46.850418;-0.152344;-0.957764;0.001709
46.852131;-0.149902;-0.961670;0.001953
47.033981;-0.149658;-0.960938;0.005615
47.034138;-0.155029;-0.958740;0.006104
47.034222;-0.157471;-0.962402;-0.002441
47.034306;-0.152344;-0.961426;0.000000
47.131424;-0.152832;-0.958984;0.004639
47.131561;-0.154541;-0.960938;0.001709
47.131645;-0.152832;-0.961914;0.000000
47.131744;-0.152588;-0.958252;0.002441
47.228432;-0.154053;-0.962646;-0.005127
47.228573;-0.153320;-0.961670;0.000977
47.228664;-0.153809;-0.958496;0.004395
47.228752;-0.151855;-0.960938;-0.000732
47.423386;-0.154053;-0.961182;-0.002197
47.423527;-0.153564;-0.960205;0.001221
47.423618;-0.154785;-0.960449;0.003418
47.423702;-0.155029;-0.960693;0.004150
47.521187;-0.152344;-0.957764;0.003174
47.521309;-0.150879;-0.960449;0.000000
47.521400;-0.152832;-0.962158;-0.001953
47.521484;-0.153564;-0.960693;-0.000488
47.618446;-0.152588;-0.961182;0.000488
47.618587;-0.155273;-0.959473;0.003174
47.618694;-0.156494;-0.962402;0.001953
47.618778;-0.156982;-0.960449;0.001221
47.716190;-0.157715;-0.960693;-0.001221
47.716312;-0.155518;-0.958008;0.001953
47.716400;-0.153076;-0.960449;0.003174
47.716484;-0.150635;-0.960938;-0.000244
48.301315;-0.150635;-0.964355;-0.004883
48.301460;-0.149902;-0.958984;0.003906
48.301701;-0.154297;-0.959473;0.006348
48.301800;-0.155518;-0.961182;-0.000732
48.398365;-0.155518;-0.962646;-0.002930
48.398502;-0.153076;-0.958496;0.002930
48.398598;-0.153564;-0.963623;-0.000732
48.398685;-0.152344;-0.959717;0.003418
48.495518;-0.152100;-0.957275;0.007324
48.495659;-0.154053;-0.964111;-0.001465
48.495750;-0.155518;-0.959717;-0.000732
48.495838;-0.153564;-0.959229;0.004639
48.497471;-0.152100;-0.962891;-0.003662
48.497574;-0.154785;-0.961182;0.002686
48.497662;-0.157471;-0.957520;0.006348
48.497746;-0.156494;-0.957520;0.000732
48.594364;-0.156006;-0.961182;0.001465
48.594494;-0.155518;-0.959961;0.003662
48.594933;-0.152832;-0.962646;-0.000244
48.595024;-0.155029;-0.959473;0.005371
48.596672;-0.154297;-0.959961;0.002686
48.596760;-0.152832;-0.959717;0.001221
48.596844;-0.155762;-0.960205;0.006104
48.596924;-0.152588;-0.960449;0.003174
48.690514;-0.152588;-0.960449;0.000732
48.690643;-0.153809;-0.961426;-0.000244
48.690739;-0.151611;-0.962646;0.000977
48.690823;-0.153564;-0.959229;0.002441
48.886425;-0.154785;-0.959961;0.002686
48.886562;-0.156250;-0.960449;0.003174
48.886997;-0.153320;-0.959717;0.002197
48.887096;-0.153076;-0.961426;0.000244
48.888229;-0.152100;-0.960693;-0.001709
48.888336;-0.153076;-0.959717;0.007324
48.888424;-0.156250;-0.959473;-0.002686
48.888508;-0.157715;-0.961914;-0.002441
48.983528;-0.152588;-0.959473;0.000488
48.983677;-0.157227;-0.962158;0.003174
48.983772;-0.158447;-0.962646;-0.002441
48.983860;-0.156494;-0.963867;-0.008301
49.178371;-0.153564;-0.957520;-0.006104
49.178513;-0.152100;-0.960693;-0.002686
49.178604;-0.153076;-0.960205;0.001221
49.178692;-0.155762;-0.958496;0.005127
49.276482;-0.154541;-0.960449;0.001709
49.276802;-0.156982;-0.961182;-0.003174
49.276897;-0.158936;-0.958496;-0.002930
49.276985;-0.158691;-0.960449;0.003418
49.373501;-0.158447;-0.963135;0.001465
49.373646;-0.159424;-0.961670;-0.001709
49.373737;-0.158203;-0.961670;-0.002930
49.373821;-0.157715;-0.960205;-0.001953
49.568489;-0.157227;-0.962646;-0.002686
49.568741;-0.156738;-0.959961;0.000000
49.568836;-0.156494;-0.958008;-0.000977
49.568924;-0.157227;-0.960693;-0.002686
49.666180;-0.160156;-0.960938;-0.003418
49.666306;-0.158936;-0.961182;0.001221
49.666401;-0.159424;-0.959229;0.001221
49.666489;-0.158691;-0.961426;-0.000244
49.763351;-0.159424;-0.961426;-0.000244
49.763489;-0.158203;-0.959961;-0.000977
49.763580;-0.158691;-0.960938;-0.001953
49.763668;-0.159912;-0.962158;-0.001221
49.958389;-0.157471;-0.958984;0.000000
49.958527;-0.158691;-0.962891;0.000977
49.958618;-0.160156;-0.963623;-0.005127
49.958706;-0.158936;-0.957275;0.000000
50.056187;-0.158203;-0.956299;0.004395
50.056313;-0.158936;-0.959229;-0.000244
50.056404;-0.163086;-0.961670;-0.008057
50.056492;-0.161865;-0.960693;-0.005859
50.153503;-0.163818;-0.958496;-0.001709
50.153645;-0.160889;-0.957764;0.000732
50.153748;-0.156738;-0.961426;0.001709
50.153831;-0.157715;-0.961914;-0.000732
50.251205;-0.161621;-0.961670;-0.005859
50.251331;-0.162109;-0.958252;-0.002441
50.251427;-0.158203;-0.958984;0.000732
50.251511;-0.160889;-0.958496;-0.001953
50.836563;-0.158936;-0.959961;-0.000244
50.836857;-0.156738;-0.959717;0.000488
50.836952;-0.159424;-0.961670;-0.003418
50.837044;-0.161133;-0.960205;-0.002686
50.933060;-0.158691;-0.958496;0.000488
50.933189;-0.161377;-0.961670;-0.002197
50.933296;-0.161377;-0.961182;-0.003418
50.933388;-0.160400;-0.960205;-0.000977
50.935413;-0.159424;-0.959229;-0.001953
50.935505;-0.160645;-0.960205;-0.002197
50.935589;-0.160645;-0.961182;-0.004150
50.935673;-0.161621;-0.958740;-0.000244
51.128304;-0.159912;-0.960693;-0.001953
51.128441;-0.159668;-0.957275;-0.000977
51.128536;-0.157227;-0.962646;0.000488
51.128967;-0.154053;-0.962891;-0.003662
51.130089;-0.159424;-0.959473;-0.003906
51.130192;-0.168213;-0.958008;-0.004395
51.130291;-0.177246;-0.958984;-0.003418
51.130375;-0.175293;-0.963379;-0.003906
51.226562;-0.163086;-0.966797;-0.004639
51.227032;-0.157227;-0.963379;-0.006348
51.227139;-0.150635;-0.956787;-0.003662
51.227226;-0.149414;-0.961182;-0.000977
51.228352;-0.144775;-0.961182;-0.000488
51.228462;-0.146484;-0.962891;-0.006104
51.228546;-0.145508;-0.959473;0.001953
51.228630;-0.144531;-0.953613;0.005615
51.323761;-0.144775;-0.957520;0.006592
51.323883;-0.147217;-0.963135;0.007080
51.323975;-0.149414;-0.956055;0.015869
51.324059;-0.152832;-0.958008;0.016113
51.421101;-0.155029;-0.962646;0.006592
51.421238;-0.156738;-0.958496;0.013428
51.421329;-0.157471;-0.962891;0.010254
51.421417;-0.161133;-0.961670;0.005859
51.522289;-0.158447;-0.959473;0.004639
51.522671;-0.152344;-0.963135;-0.001221
51.522770;-0.143311;-0.965332;0.003174
51.522858;-0.143311;-0.965332;0.003906
52.103989;-0.146729;-0.962646;-0.002197
52.104275;-0.146240;-0.959717;0.002197
52.104385;-0.146484;-0.961182;0.007568
52.104591;-0.144287;-0.959717;0.008057
52.200855;-0.151123;-0.963135;0.009277
52.201000;-0.155762;-0.963623;0.005615
52.201096;-0.155762;-0.962891;0.004639
52.201183;-0.153564;-0.955078;0.010742
52.298840;-0.153809;-0.958252;0.013184
52.298973;-0.153076;-0.962158;0.006104
52.299068;-0.147949;-0.962891;0.000244
52.299156;-0.145508;-0.958984;0.000488
52.300220;-0.142578;-0.959717;0.001709
52.300331;-0.143555;-0.961426;0.008057
52.300419;-0.145264;-0.961426;0.008545
52.300743;-0.147217;-0.963623;0.002930
52.403664;-0.149170;-0.959229;0.002686
52.403797;-0.152832;-0.960205;0.003662
52.403893;-0.154053;-0.962402;0.003418
52.403976;-0.155518;-0.961182;0.007080
52.405479;-0.156982;-0.957520;0.007568
52.405586;-0.156006;-0.959473;0.006836
52.405682;-0.151367;-0.963379;0.002197
52.405766;-0.150635;-0.961670;0.001953
52.405849;-0.149170;-0.961670;0.002930
52.405933;-0.144531;-0.963867;0.001221
52.406013;-0.145020;-0.962402;0.000732
52.406097;-0.150391;-0.962646;0.000732
52.590923;-0.149658;-0.960693;0.007568
52.591061;-0.150391;-0.959473;0.007812
52.591156;-0.152832;-0.961914;0.002197
52.591240;-0.158203;-0.960693;0.005371
52.688732;-0.154785;-0.958496;0.006592
52.688862;-0.153320;-0.960938;0.003906
52.688957;-0.156006;-0.962158;0.002197
52.689041;-0.153809;-0.960693;0.004883
52.785915;-0.152832;-0.958252;0.006836
52.786053;-0.152344;-0.965088;-0.001221
52.786144;-0.154541;-0.963379;-0.002686
52.786228;-0.152832;-0.956543;0.005615
52.980988;-0.150879;-0.961670;0.002686
52.981129;-0.154541;-0.964355;-0.001221
52.981224;-0.153564;-0.962646;-0.001953
52.981312;-0.156006;-0.959473;0.004883
53.078342;-0.154541;-0.958252;0.004395
53.078480;-0.151855;-0.961670;0.006104
53.078945;-0.151367;-0.961426;0.004883
53.079033;-0.154297;-0.960449;0.003174
53.175922;-0.153564;-0.959473;0.000000
53.176060;-0.153320;-0.959229;0.004395
53.176151;-0.156250;-0.960693;0.002930
53.176235;-0.157227;-0.962891;0.000732
53.273792;-0.157227;-0.961670;-0.000732
53.273914;-0.154785;-0.960938;0.001465
53.274006;-0.153076;-0.959961;0.001221
53.274090;-0.153809;-0.961426;0.000732
53.468781;-0.153564;-0.960205;0.001709
53.468910;-0.153320;-0.958984;0.002686
53.469006;-0.152588;-0.959473;0.001709
53.469093;-0.151367;-0.961182;0.001221
53.566734;-0.150635;-0.961426;0.001465
53.566856;-0.152344;-0.961426;0.000244
53.566948;-0.153320;-0.961182;0.000244
53.567036;-0.154053;-0.960205;0.000732
53.664043;-0.156494;-0.961914;0.001709
53.664165;-0.156738;-0.960205;0.003418
53.664257;-0.153809;-0.959961;0.001465
53.664345;-0.153809;-0.960449;0.000244
53.858761;-0.153809;-0.960938;-0.000732
53.858891;-0.151855;-0.962158;0.000244
53.858982;-0.152832;-0.958252;0.001221
53.859070;-0.154541;-0.962158;0.000244
53.956116;-0.153564;-0.960693;-0.000732
53.956284;-0.150146;-0.963623;-0.006104
53.956375;-0.147705;-0.957520;0.001465
53.956463;-0.153076;-0.960205;0.005371
54.053665;-0.155762;-0.963867;-0.003906
54.053825;-0.154541;-0.962402;-0.004150
54.053921;-0.154541;-0.957764;0.000732
54.054008;-0.150879;-0.961426;-0.000732
54.150944;-0.151367;-0.964111;0.001953
54.151081;-0.153809;-0.959229;0.007568
54.151173;-0.153076;-0.960205;0.002930
54.151260;-0.152100;-0.962158;-0.003174
54.345936;-0.150879;-0.961182;0.000488
54.346069;-0.155273;-0.960449;0.003906
54.346165;-0.154053;-0.961182;0.001709
54.346264;-0.153564;-0.960938;0.002686
54.443897;-0.151611;-0.962158;0.000977
54.444027;-0.150879;-0.960938;0.000244
54.444122;-0.150146;-0.959961;0.001221
54.444210;-0.149414;-0.961182;0.000000
54.541679;-0.153076;-0.963867;-0.003906
54.541927;-0.155273;-0.960205;0.000488
54.542019;-0.151367;-0.958252;0.002441
54.542103;-0.151367;-0.962158;-0.001709
54.735962;-0.148682;-0.962402;0.000977
54.736099;-0.147461;-0.959229;0.001221
54.736191;-0.145996;-0.958496;0.001709
54.736279;-0.148438;-0.960938;0.002930
54.833767;-0.147949;-0.960205;0.000732
54.833897;-0.148926;-0.960205;0.003174
54.833988;-0.150146;-0.962646;0.002686
54.834076;-0.152832;-0.960938;0.001221
54.930950;-0.154297;-0.960449;0.002686
54.931087;-0.152588;-0.961426;0.000732
54.931183;-0.152832;-0.961914;0.000488
54.931271;-0.151367;-0.961426;0.000488
55.125950;-0.153564;-0.959961;0.002441
55.126087;-0.153564;-0.962402;-0.002686
55.126179;-0.151855;-0.961426;-0.002441
55.126266;-0.149414;-0.960449;0.002930
55.223770;-0.152588;-0.960938;0.002441
55.223896;-0.154785;-0.961670;-0.001465
55.223991;-0.153809;-0.962891;-0.003418
55.224075;-0.152832;-0.959717;0.000244
55.320976;-0.149170;-0.960449;0.000488
55.321114;-0.151367;-0.959229;0.005127
55.321205;-0.152832;-0.961426;0.003174
55.321293;-0.156006;-0.962402;-0.001709
55.418762;-0.156250;-0.961670;-0.003662
55.418888;-0.150635;-0.958740;0.002441
55.418983;-0.152588;-0.960449;0.002930
55.419067;-0.155029;-0.962646;0.001221
56.004684;-0.155029;-0.955811;0.002930
56.004826;-0.151367;-0.957764;0.002686
56.005260;-0.154541;-0.960938;-0.001709
56.005352;-0.164062;-0.963135;0.001465
56.006763;-0.168945;-0.960449;0.001465
56.006847;-0.171631;-0.963135;-0.002930
56.006931;-0.161865;-0.961670;-0.007568
56.007011;-0.156982;-0.961914;-0.003906
56.101330;-0.151855;-0.962402;-0.002930
56.101456;-0.150391;-0.960205;-0.000244
56.101551;-0.154053;-0.959717;0.000244
56.101974;-0.156982;-0.960693;0.000244
56.103802;-0.156982;-0.958008;0.000244
56.103893;-0.157227;-0.960693;0.001709
56.103977;-0.154785;-0.960449;0.001465
56.104057;-0.158203;-0.957764;0.005371
56.197941;-0.152588;-0.957764;0.002441
56.198421;-0.154785;-0.960693;0.000244
56.198513;-0.154053;-0.961182;0.000488
56.198601;-0.152344;-0.956787;0.002930
56.199509;-0.156250;-0.962158;-0.001709
56.199615;-0.160645;-0.964111;-0.008057
56.199699;-0.163330;-0.960938;-0.002930
56.199787;-0.161133;-0.955078;0.005615
56.296421;-0.160400;-0.962891;0.000000
56.296539;-0.161865;-0.963867;-0.009033
56.296631;-0.162842;-0.960449;-0.004395
56.296719;-0.158203;-0.958008;0.003418
56.882233;-0.154785;-0.958008;0.000488
56.882374;-0.155518;-0.960449;-0.000977
56.882469;-0.152344;-0.959717;0.001709
56.882561;-0.154785;-0.959961;-0.002441
56.978802;-0.154297;-0.960449;-0.003662
56.978928;-0.153076;-0.958008;0.003418
56.979019;-0.157471;-0.962646;-0.002441
56.979107;-0.162109;-0.961426;-0.001709
57.075813;-0.159912;-0.958740;0.001953
57.075954;-0.159180;-0.963623;-0.003906
57.076046;-0.161377;-0.963623;-0.004395
57.076130;-0.155518;-0.961670;-0.000244
57.173477;-0.156738;-0.959961;0.000000
57.173954;-0.158936;-0.959473;-0.002197
57.174057;-0.151611;-0.956299;0.005859
57.174145;-0.142578;-0.954346;0.007080
57.175350;-0.150635;-0.965088;0.004883
57.175453;-0.158691;-0.963379;-0.005371
57.175537;-0.159180;-0.956543;0.000000
57.175625;-0.159424;-0.957764;0.006836
57.271950;-0.167480;-0.967285;0.000244
57.272076;-0.166992;-0.962646;0.001221
57.272167;-0.161865;-0.959717;-0.001221
57.272259;-0.156006;-0.964600;-0.002197
57.273746;-0.153320;-0.960938;0.002441
57.273853;-0.150146;-0.958984;0.008301
57.273941;-0.150391;-0.959717;0.005127
57.274025;-0.148926;-0.962891;-0.000977
57.368538;-0.150879;-0.960449;-0.003662
57.368675;-0.150635;-0.956299;0.010010
57.368771;-0.153076;-0.958984;0.009033
57.368855;-0.154541;-0.961914;0.001709
57.466469;-0.153564;-0.961426;0.002197
57.466591;-0.152100;-0.958252;0.002441
57.466682;-0.152588;-0.960938;-0.000977
57.466766;-0.152100;-0.961182;0.005859
57.563591;-0.156006;-0.960205;0.005859
57.563728;-0.158203;-0.962158;-0.002930
57.563820;-0.150879;-0.962402;0.001221
57.563904;-0.150879;-0.959961;0.003418
57.758636;-0.151855;-0.961182;-0.001709
57.758774;-0.154541;-0.960938;0.000977
57.758869;-0.154053;-0.958740;-0.000732
57.758957;-0.153076;-0.959473;-0.000488
57.857349;-0.151855;-0.960449;-0.002930
57.857464;-0.150146;-0.964355;-0.001221
57.857559;-0.152100;-0.959717;0.003418
57.857643;-0.160889;-0.961426;-0.001221
57.953682;-0.169434;-0.959961;0.005371
57.953819;-0.174561;-0.957764;0.005615
57.953915;-0.167236;-0.965088;-0.003906
57.953999;-0.161865;-0.961182;0.000977
58.148533;-0.157471;-0.957275;0.004639
58.148670;-0.148682;-0.960938;-0.000977
58.148766;-0.147461;-0.958740;0.000000
58.148849;-0.150146;-0.958252;0.000244
58.246315;-0.153809;-0.964111;-0.003662
58.246445;-0.159668;-0.962891;-0.000977
58.246536;-0.157959;-0.962158;0.001221
58.246620;-0.155762;-0.954346;0.007324
58.343533;-0.155273;-0.960449;0.003906
58.343670;-0.150635;-0.964844;0.000732
58.343761;-0.153809;-0.955566;0.003174
58.343849;-0.157959;-0.957764;0.004883
58.443012;-0.159424;-0.963135;0.002441
58.443138;-0.161621;-0.961670;-0.002441
58.443230;-0.164307;-0.963623;-0.008057
58.443314;-0.162842;-0.958984;-0.000977
59.028084;-0.155762;-0.957031;-0.000244
59.028233;-0.153320;-0.964355;-0.001465
59.028328;-0.153076;-0.963867;-0.000244
59.028419;-0.157715;-0.959961;-0.001953
59.029472;-0.156738;-0.961426;-0.004883
59.029579;-0.152588;-0.959473;0.001221
59.029659;-0.159424;-0.961426;0.003418
59.029743;-0.160400;-0.962891;-0.000244
59.124702;-0.157959;-0.959717;0.001709
59.124840;-0.158447;-0.961182;-0.002441
59.125118;-0.159668;-0.963135;-0.001953
59.125221;-0.159912;-0.959229;0.004639
59.221359;-0.156494;-0.960938;0.000000
59.221500;-0.157227;-0.962646;-0.000977
59.221596;-0.158203;-0.959717;-0.000244
59.221684;-0.158203;-0.959961;-0.001221
59.224972;-0.157227;-0.962402;-0.002197
59.225079;-0.157471;-0.959717;-0.002197
59.225166;-0.159424;-0.960205;-0.001465
59.225311;-0.159180;-0.960693;0.000732
59.225395;-0.156494;-0.959961;0.000732
59.225479;-0.159912;-0.961426;-0.003418
59.225563;-0.157959;-0.961426;-0.002197
59.225647;-0.157715;-0.958252;-0.000488
59.318756;-0.157227;-0.960449;-0.000488
59.318920;-0.159912;-0.964355;-0.008545
59.319016;-0.159180;-0.960449;-0.005127
59.319103;-0.157227;-0.955811;0.004395
59.513672;-0.157959;-0.960693;0.000000
59.513813;-0.160645;-0.965088;-0.007080
59.513908;-0.163086;-0.961670;-0.005615
59.513992;-0.162598;-0.957275;-0.002930
59.611366;-0.160156;-0.959717;-0.000977
59.611496;-0.157471;-0.960938;-0.002197
59.611591;-0.158203;-0.961182;-0.003662
59.611675;-0.158936;-0.960938;-0.002441
59.708565;-0.159424;-0.960938;-0.005371
59.708702;-0.159424;-0.960938;-0.004395
59.708797;-0.161865;-0.959717;-0.003174
59.708881;-0.162598;-0.960693;-0.004883
59.903545;-0.159424;-0.961426;-0.001709
59.903828;-0.158936;-0.959717;-0.003662
59.903923;-0.158447;-0.963623;-0.005859
59.904011;-0.160400;-0.959717;-0.003418
60.001808;-0.161377;-0.958984;-0.001465
60.001949;-0.159180;-0.960693;-0.003174
60.002045;-0.158447;-0.960205;-0.003418
60.002132;-0.156006;-0.960693;-0.004883
60.098660;-0.159180;-0.960205;-0.003418
60.098793;-0.162109;-0.959473;-0.002441
60.098888;-0.161133;-0.960693;-0.002930
60.098972;-0.158936;-0.961426;-0.004395
60.196362;-0.159668;-0.958740;-0.002197
60.196487;-0.156738;-0.960449;-0.000977
60.196583;-0.159912;-0.959961;-0.003906
60.196671;-0.160889;-0.959717;-0.003662
60.781731;-0.158691;-0.957764;0.000244
60.782211;-0.160400;-0.961182;-0.003906
60.782330;-0.158936;-0.961426;-0.005615
60.782413;-0.158691;-0.959229;-0.002686
60.784031;-0.158203;-0.958984;-0.000488
60.784138;-0.161377;-0.960205;-0.002197
60.784222;-0.159424;-0.962158;-0.005371
60.784306;-0.158447;-0.960205;-0.003662
60.878918;-0.159912;-0.958496;-0.002441
60.879044;-0.159668;-0.959473;-0.003418
60.879135;-0.156494;-0.960205;0.000488
60.879559;-0.157715;-0.958496;0.000977
60.881130;-0.158936;-0.961182;-0.002686
60.881367;-0.154541;-0.957764;-0.003662
60.881458;-0.154297;-0.957031;-0.001709
60.881542;-0.157227;-0.963135;-0.003662
60.975315;-0.158447;-0.961182;-0.004395
60.975452;-0.153076;-0.958252;-0.005371
60.975895;-0.154785;-0.959717;-0.003418
60.975986;-0.155762;-0.960205;-0.003906
60.977074;-0.155273;-0.960205;-0.003662
60.977180;-0.157227;-0.960205;-0.001221
60.977264;-0.160645;-0.959717;-0.001953
60.977348;-0.162109;-0.960693;-0.002930
61.171471;-0.152588;-0.957275;-0.004395
61.171589;-0.150146;-0.960449;-0.004395
61.171680;-0.151123;-0.961182;-0.005371
61.171764;-0.151855;-0.959717;-0.004639
61.269020;-0.153320;-0.960693;-0.005859
61.269142;-0.152344;-0.961914;-0.005859
61.269245;-0.151855;-0.962158;-0.007080
61.269333;-0.151855;-0.959717;-0.006592
61.366146;-0.152832;-0.962158;-0.008057
61.366287;-0.152588;-0.960693;-0.007324
61.366379;-0.155273;-0.961426;-0.004395
61.366463;-0.153076;-0.960205;-0.004883
61.464397;-0.152588;-0.958740;-0.005615
61.465130;-0.151855;-0.957764;0.000000
61.465225;-0.153564;-0.958008;-0.000244
61.465313;-0.156006;-0.962158;-0.005615
62.049248;-0.153076;-0.962158;-0.013672
62.049393;-0.152344;-0.960449;-0.009277
62.049648;-0.151367;-0.959473;-0.006836
62.049736;-0.152344;-0.959229;-0.004395
62.145977;-0.154297;-0.958008;-0.002930
62.146454;-0.155029;-0.959473;-0.004639
62.146553;-0.157471;-0.962158;-0.010742
62.146641;-0.156006;-0.957520;-0.006348
62.148060;-0.158447;-0.957764;-0.000977
62.148163;-0.158447;-0.961426;-0.005127
62.148247;-0.156006;-0.960205;-0.005371
62.148331;-0.155518;-0.957520;-0.007080
62.244045;-0.155762;-0.960449;-0.007568
62.244953;-0.155518;-0.959717;-0.006836
62.245060;-0.155029;-0.959473;-0.005371
62.245148;-0.155518;-0.959229;-0.007324
62.247166;-0.154785;-0.958252;-0.004639
62.247253;-0.156006;-0.960693;-0.008057
62.247337;-0.157959;-0.960938;-0.006592
62.247421;-0.162109;-0.959717;-0.002441
62.340363;-0.160156;-0.958252;-0.003418
62.340500;-0.158691;-0.961182;-0.007324
62.340591;-0.160645;-0.961182;-0.007080
62.340679;-0.161621;-0.959473;-0.003906
62.438900;-0.159424;-0.960693;-0.007324
62.439030;-0.159180;-0.960449;-0.007080
62.439121;-0.157471;-0.961182;-0.005859
62.439209;-0.158936;-0.957275;-0.002686
62.536121;-0.158936;-0.961914;-0.006348
62.536373;-0.161133;-0.962891;-0.012451
62.536484;-0.158936;-0.958008;-0.006104
62.536572;-0.158447;-0.953613;0.002197
62.633915;-0.159180;-0.959717;-0.003418
62.634045;-0.163574;-0.962891;-0.011475
62.634132;-0.163818;-0.960205;-0.008789
62.634220;-0.160645;-0.955811;-0.005615
62.731071;-0.155762;-0.957520;-0.006104
62.731209;-0.157715;-0.962646;-0.005615
62.731304;-0.160156;-0.959717;-0.006836
62.731388;-0.160400;-0.958496;-0.005615
62.926079;-0.159180;-0.959961;-0.008301
62.926216;-0.154541;-0.957275;-0.005615
62.926308;-0.160156;-0.959229;-0.004395
62.926395;-0.165283;-0.958496;-0.008545
63.023773;-0.162842;-0.955566;-0.007080
63.023911;-0.162842;-0.957031;-0.006836
63.024021;-0.163086;-0.959717;-0.004150
63.024105;-0.160400;-0.959717;-0.005127
63.122120;-0.159912;-0.960205;-0.005615
63.122242;-0.159668;-0.959961;-0.008545
63.122334;-0.160156;-0.958984;-0.007812
63.122417;-0.159180;-0.958496;-0.005127
63.316105;-0.160400;-0.958740;-0.005859
63.316242;-0.159180;-0.959229;-0.008545
63.316338;-0.158936;-0.960205;-0.007568
63.316422;-0.163086;-0.960205;-0.008789
63.414089;-0.161377;-0.958740;-0.005127
63.414215;-0.159912;-0.956787;-0.006348
63.414307;-0.162354;-0.959473;-0.002930
63.414509;-0.161621;-0.962646;-0.010254
63.511154;-0.163086;-0.958984;-0.009277
63.511295;-0.160156;-0.954834;-0.005859
63.511387;-0.158447;-0.959717;-0.004883
63.511475;-0.162109;-0.961182;-0.010254
63.609211;-0.160889;-0.960938;-0.014404
63.609337;-0.161133;-0.957031;-0.007568
63.609428;-0.159424;-0.958984;-0.006104
63.609512;-0.157471;-0.960938;-0.006104
64.194305;-0.156738;-0.958984;-0.004150
64.194778;-0.159180;-0.959717;-0.008057
64.194878;-0.159424;-0.960938;-0.009766
64.194969;-0.156006;-0.958496;-0.006836
64.196091;-0.156982;-0.958984;-0.007080
64.196198;-0.161621;-0.958252;-0.004883
64.196289;-0.160400;-0.959717;-0.006104
64.196381;-0.160645;-0.959473;-0.005371
64.291534;-0.159180;-0.959961;-0.008789
64.291664;-0.156494;-0.961182;-0.006592
64.291763;-0.159668;-0.959961;-0.003174
64.291847;-0.157471;-0.960693;-0.006348
64.389359;-0.156738;-0.959229;-0.006836
64.389481;-0.156494;-0.959961;-0.006104
64.389572;-0.158203;-0.960449;-0.005371
64.389656;-0.157959;-0.959961;-0.005615
64.486740;-0.156982;-0.959473;-0.007568
64.487007;-0.158447;-0.960693;-0.007568
64.487099;-0.156982;-0.959473;-0.006104
64.487190;-0.158447;-0.959961;-0.004395
64.582726;-0.157959;-0.960693;-0.006592
64.582855;-0.157715;-0.959473;-0.005127
64.582962;-0.159912;-0.961670;-0.006104
64.583054;-0.158447;-0.960449;-0.007568
64.682091;-0.156982;-0.960449;-0.010742
64.682198;-0.156006;-0.956543;-0.003174
64.682289;-0.160889;-0.958008;-0.003174
64.682381;-0.159912;-0.960693;-0.009521
64.683907;-0.158936;-0.961670;-0.010742
64.683990;-0.157471;-0.960693;-0.008057
64.684074;-0.158447;-0.959717;-0.010498
64.684158;-0.156738;-0.959717;-0.003174
64.781166;-0.156250;-0.959717;-0.002441
64.781326;-0.156982;-0.961182;-0.008057
64.781425;-0.154541;-0.960205;-0.008057
64.781509;-0.155029;-0.958008;-0.004150
64.876328;-0.155518;-0.958252;-0.004395
64.876480;-0.157959;-0.962158;-0.007324
64.876579;-0.156250;-0.959717;-0.007080
64.876663;-0.157959;-0.958496;-0.009521
65.461830;-0.155518;-0.958496;-0.006592
65.462059;-0.156494;-0.960205;-0.006104
65.462151;-0.155518;-0.960938;-0.005371
65.462242;-0.155518;-0.959229;-0.007568
65.558746;-0.155518;-0.959229;-0.007568
65.559128;-0.156006;-0.959229;-0.006592
65.559227;-0.156006;-0.958496;-0.005615
65.559303;-0.158691;-0.962891;-0.008301
65.656136;-0.158203;-0.961670;-0.009277
65.656311;-0.157227;-0.958984;-0.006348
65.656403;-0.158203;-0.962646;-0.010010
65.656494;-0.158691;-0.963379;-0.010254
65.753983;-0.158691;-0.958252;-0.005859
65.754105;-0.158203;-0.960449;-0.008057
65.754204;-0.160889;-0.961182;-0.007080
65.754288;-0.157715;-0.959473;-0.004883
65.851433;-0.157227;-0.960205;-0.010010
65.851692;-0.155273;-0.957764;-0.005615
65.851791;-0.159424;-0.959229;-0.003174
65.851883;-0.160400;-0.961426;-0.009521
65.948624;-0.161377;-0.960449;-0.011963
65.949112;-0.155273;-0.958740;-0.007080
65.949203;-0.156006;-0.958252;-0.009521
65.949608;-0.154297;-0.958496;-0.006104
65.951286;-0.154053;-0.958008;-0.004150
65.951401;-0.158447;-0.961426;-0.010742
65.951485;-0.158936;-0.961182;-0.011475
65.951569;-0.156494;-0.958740;-0.004639
65.952576;-0.157471;-0.958740;-0.006592
65.952675;-0.161377;-0.962646;-0.009766
65.952759;-0.158447;-0.958984;-0.006836
65.952858;-0.159424;-0.958740;-0.010254
66.144218;-0.158203;-0.961426;-0.010986
66.144669;-0.158203;-0.961670;-0.005615
66.144768;-0.157959;-0.960449;-0.004883
66.144852;-0.158691;-0.959961;-0.010254
66.146317;-0.159668;-0.960693;-0.008057
66.146431;-0.157959;-0.960449;-0.007080
66.146515;-0.159668;-0.960449;-0.007324
66.146599;-0.159180;-0.960449;-0.006592
66.338654;-0.159668;-0.959229;-0.005127
66.338783;-0.160156;-0.959961;-0.007324
66.338882;-0.158936;-0.960938;-0.007812
66.338966;-0.160400;-0.960449;-0.006348
66.436455;-0.159180;-0.958984;-0.006104
66.436584;-0.160400;-0.958984;-0.004883
66.436676;-0.159668;-0.962402;-0.011475
66.436760;-0.161621;-0.960938;-0.008789
66.533928;-0.157715;-0.956543;-0.004150
66.534081;-0.157471;-0.956787;-0.002930
66.534172;-0.161133;-0.962646;-0.010986
66.534256;-0.163330;-0.960693;-0.011963
66.728668;-0.163086;-0.958496;-0.008057
66.728806;-0.160156;-0.958984;-0.008057
66.728897;-0.155273;-0.958740;-0.005371
66.728989;-0.156982;-0.960938;-0.005615
66.826462;-0.158691;-0.959717;-0.007812
66.826591;-0.159180;-0.960449;-0.008057
66.826683;-0.157471;-0.959717;-0.006592
66.826775;-0.157959;-0.959473;-0.006348
66.923737;-0.161377;-0.959717;-0.007812
66.923874;-0.160156;-0.959961;-0.007080
66.923965;-0.158936;-0.960938;-0.008545
66.924057;-0.159912;-0.959473;-0.010498
67.021721;-0.160645;-0.959961;-0.008057
67.021843;-0.160156;-0.960693;-0.007080
67.021935;-0.159668;-0.960205;-0.008301
67.022018;-0.158447;-0.959961;-0.007568
67.607452;-0.158936;-0.960449;-0.007324
67.607933;-0.160156;-0.958496;-0.007568
67.608032;-0.159668;-0.959961;-0.008789
67.608124;-0.157959;-0.960693;-0.007568
67.609940;-0.160645;-0.962402;-0.010498
67.610023;-0.159424;-0.959717;-0.007812
67.610107;-0.159180;-0.958984;-0.007080
67.610191;-0.160889;-0.962402;-0.010010
67.704018;-0.158447;-0.961426;-0.006348
67.704140;-0.159180;-0.957520;-0.002686
67.704231;-0.162109;-0.960938;-0.011475
67.704315;-0.162354;-0.959229;-0.009277
67.800888;-0.156250;-0.956299;-0.005127
67.801010;-0.158203;-0.960693;-0.004150
67.801437;-0.160156;-0.960693;-0.009033
67.801537;-0.160400;-0.962158;-0.011230
67.803688;-0.158447;-0.958984;-0.007568
67.803780;-0.156494;-0.958252;-0.006592
67.803864;-0.156982;-0.960205;-0.006836
67.803947;-0.156250;-0.960693;-0.002686
67.805252;-0.156494;-0.958740;-0.005859
67.805359;-0.158691;-0.962891;-0.012207
67.805443;-0.157715;-0.958984;-0.008057
67.805527;-0.158691;-0.957764;-0.003174
67.898636;-0.159912;-0.962646;-0.008057
67.898766;-0.161377;-0.958740;-0.004150
67.898872;-0.156494;-0.958496;-0.007568
67.898964;-0.157227;-0.961182;-0.009766
68.093681;-0.157715;-0.960449;-0.005859
68.093819;-0.157959;-0.961914;-0.008057
68.093910;-0.157715;-0.961914;-0.006104
68.093994;-0.157715;-0.959229;-0.008057
68.192352;-0.159180;-0.961914;-0.008545
68.192482;-0.156250;-0.959473;-0.006104
68.192574;-0.158203;-0.961426;-0.008301
68.192657;-0.157715;-0.960693;-0.007080
68.288757;-0.156494;-0.959717;-0.006348
68.288895;-0.154785;-0.958740;-0.006836
68.288986;-0.154541;-0.959229;-0.007080
68.289085;-0.155762;-0.960205;-0.006592
68.483688;-0.155518;-0.958740;-0.006348
68.483826;-0.154785;-0.960205;-0.006836
68.483917;-0.157227;-0.959961;-0.008057
68.484009;-0.156494;-0.960693;-0.007568
68.581520;-0.157715;-0.959229;-0.003906
68.581650;-0.155518;-0.960693;-0.007568
68.581741;-0.157471;-0.961670;-0.011719
68.581825;-0.156982;-0.958496;-0.009766
68.678833;-0.154541;-0.956055;-0.002930
68.678970;-0.157959;-0.961182;-0.009521
68.679062;-0.157959;-0.963867;-0.014404
68.679146;-0.157959;-0.962402;-0.011230
68.873657;-0.156494;-0.957520;-0.007812
68.873795;-0.152100;-0.959717;-0.005615
68.873894;-0.153076;-0.960693;-0.004883
68.873993;-0.155518;-0.958740;-0.005859
68.971527;-0.157471;-0.962891;-0.010986
68.971657;-0.155029;-0.960693;-0.009277
68.971748;-0.153809;-0.958008;-0.004883
68.971840;-0.156250;-0.962402;-0.005371
69.068855;-0.158203;-0.961670;-0.006592
69.068993;-0.156494;-0.958252;-0.010986
69.069084;-0.156982;-0.958740;-0.010010
69.069176;-0.155762;-0.960449;-0.007812
69.166977;-0.154785;-0.959717;-0.004639
69.167114;-0.155762;-0.959961;-0.007080
69.167206;-0.156738;-0.958252;-0.009277
69.167290;-0.154053;-0.958252;-0.006836
69.361534;-0.154541;-0.958984;-0.006836
69.361664;-0.154785;-0.959717;-0.006836
69.361755;-0.155273;-0.959961;-0.007568
69.361847;-0.154785;-0.957764;-0.006836
69.458710;-0.156494;-0.959717;-0.006104
69.458847;-0.156982;-0.959961;-0.008057
69.458939;-0.156494;-0.960205;-0.006348
69.459023;-0.158936;-0.960693;-0.009277
69.556236;-0.156982;-0.960938;-0.006836
69.556374;-0.156494;-0.959717;-0.007812
69.556473;-0.158936;-0.959961;-0.008057
69.556557;-0.159424;-0.961670;-0.008789
69.751297;-0.157227;-0.957031;-0.007812
69.751434;-0.159424;-0.961182;-0.005371
69.751526;-0.159180;-0.961670;-0.010742
69.751610;-0.159180;-0.961426;-0.011963
69.849182;-0.157471;-0.958740;-0.004395
69.849304;-0.160400;-0.960205;-0.005615
69.849396;-0.161377;-0.960449;-0.008057
69.849480;-0.155762;-0.958740;-0.012207
69.946404;-0.150635;-0.960693;-0.012939
69.946541;-0.148926;-0.958984;-0.011475
69.946632;-0.155518;-0.962402;-0.010498
69.946724;-0.161865;-0.959473;-0.003906
70.044304;-0.165771;-0.958252;-0.004883
70.044426;-0.169434;-0.959473;-0.008057
70.044518;-0.162109;-0.955322;-0.004150
70.044601;-0.153320;-0.957031;0.000488
70.629143;-0.150146;-0.960449;-0.012939
70.629272;-0.150879;-0.964844;-0.018799
70.629372;-0.158691;-0.961426;-0.013184
70.629456;-0.159424;-0.959473;-0.003662
70.727264;-0.166504;-0.956787;0.003174
70.727386;-0.167969;-0.959229;0.000488
70.727486;-0.169678;-0.954102;-0.003662
70.727570;-0.164795;-0.961670;-0.009033
70.823219;-0.162598;-0.958740;-0.004395
70.823708;-0.157715;-0.963135;-0.015137
70.823807;-0.162842;-0.959473;-0.010010
70.823891;-0.166016;-0.960938;-0.007080
70.824966;-0.164062;-0.960205;-0.006836
70.825073;-0.159912;-0.957764;-0.007568
70.825157;-0.157959;-0.960449;-0.007568
70.825249;-0.156738;-0.959717;-0.006592
70.921913;-0.157715;-0.958496;-0.005859
70.922035;-0.159668;-0.959473;-0.004150
70.922127;-0.163086;-0.958740;-0.001709
70.922211;-0.162842;-0.958984;-0.000488
71.021690;-0.164795;-0.958252;-0.003174
71.021835;-0.160156;-0.960693;-0.006592
71.021927;-0.158447;-0.958252;-0.001709
71.022018;-0.155518;-0.959473;-0.006104
71.022102;-0.155762;-0.961670;-0.009521
71.022186;-0.155518;-0.964111;-0.009277
71.022270;-0.154297;-0.959717;-0.005615
71.022354;-0.158447;-0.955322;-0.003174
71.116249;-0.157715;-0.958252;0.000732
71.116386;-0.156006;-0.959717;0.004639
71.116478;-0.151367;-0.961182;0.001953
71.116577;-0.153076;-0.959717;-0.008545
71.214203;-0.154541;-0.954590;-0.002930
71.214439;-0.159668;-0.958984;-0.001953
71.214531;-0.159912;-0.964600;-0.005615
71.214622;-0.161865;-0.958496;-0.004150
71.311264;-0.163330;-0.958496;-0.010742
71.311401;-0.155518;-0.958740;-0.003174
71.311493;-0.160645;-0.957764;-0.010498
71.311577;-0.152832;-0.964844;-0.014893
71.506416;-0.152588;-0.959229;-0.006836
71.506561;-0.160400;-0.961426;-0.016602
71.506653;-0.158691;-0.963135;-0.009277
71.506744;-0.158447;-0.959473;-0.007812
71.604195;-0.159424;-0.960205;-0.012695
71.604332;-0.156982;-0.962402;-0.007568
71.604424;-0.154053;-0.957275;-0.003906
71.604530;-0.153076;-0.961426;-0.009766
71.702332;-0.156738;-0.958984;-0.003174
71.702492;-0.158691;-0.959473;-0.006592
71.702583;-0.156006;-0.961182;-0.005615
71.702675;-0.158936;-0.957275;0.001465
71.799263;-0.157959;-0.959961;-0.006592
71.799385;-0.158203;-0.964600;-0.013428
71.799477;-0.157227;-0.960938;-0.006104
71.799561;-0.162598;-0.958496;-0.002686
72.384331;-0.162598;-0.959473;-0.004639
72.384766;-0.161621;-0.961670;-0.008301
72.384865;-0.157959;-0.960938;-0.011719
72.384949;-0.153320;-0.959961;-0.012695
72.481171;-0.155762;-0.960205;-0.011230
72.481316;-0.151367;-0.961182;-0.007080
72.481758;-0.153809;-0.958984;-0.005615
72.481850;-0.157227;-0.961426;-0.011475
72.482971;-0.156494;-0.957520;-0.006104
72.483070;-0.158691;-0.957520;-0.002930
72.483154;-0.163086;-0.960449;-0.004395
72.483238;-0.160645;-0.958740;-0.004639
72.579201;-0.157715;-0.958008;-0.007080
72.579346;-0.157471;-0.961914;-0.007080
72.579453;-0.161377;-0.959717;-0.002930
72.579697;-0.158447;-0.959473;-0.007568
72.676392;-0.159180;-0.962158;-0.007080
72.676529;-0.154297;-0.958496;-0.007568
72.676628;-0.155518;-0.961914;-0.011475
72.676712;-0.156494;-0.960205;-0.009766
72.773758;-0.157959;-0.961670;-0.005859
72.774239;-0.160645;-0.959717;-0.006348
72.774338;-0.164307;-0.958496;-0.002930
72.774879;-0.162842;-0.959229;-0.002441
72.776085;-0.162109;-0.958740;-0.003906
72.776192;-0.162598;-0.958008;-0.003906
72.776283;-0.159668;-0.960449;-0.008789
72.776367;-0.157715;-0.961914;-0.006592
72.871330;-0.157471;-0.962158;-0.009033
72.871468;-0.158936;-0.959229;-0.012695
72.871559;-0.158691;-0.959229;-0.010742
72.871643;-0.160889;-0.957764;-0.002930
72.969093;-0.164062;-0.960449;-0.006104
72.969223;-0.165283;-0.959717;-0.011475
72.969315;-0.163574;-0.959229;-0.006592
72.969398;-0.161133;-0.956055;-0.005859
73.066338;-0.163574;-0.959961;-0.002930
73.066475;-0.161865;-0.959717;-0.001221
73.066566;-0.164307;-0.959717;-0.009277
73.066658;-0.162842;-0.959473;-0.010742
73.261292;-0.160156;-0.957764;-0.006348
73.261429;-0.158691;-0.960693;-0.008057
73.261536;-0.162354;-0.961182;-0.008789
73.261620;-0.162598;-0.958984;-0.007324
73.359245;-0.160156;-0.959229;-0.008057
73.359375;-0.161377;-0.959473;-0.007080
73.359467;-0.163574;-0.959229;-0.003174
73.359550;-0.163818;-0.958496;-0.004150
73.456749;-0.164307;-0.958740;-0.008545
73.456879;-0.161621;-0.957764;-0.006104
73.456970;-0.162109;-0.959229;-0.004395
73.457062;-0.160889;-0.956787;-0.005859
73.651390;-0.161865;-0.957764;-0.005127
73.651527;-0.164551;-0.959473;-0.008057
73.651619;-0.163330;-0.959717;-0.009521
73.651703;-0.162598;-0.960205;-0.007324
73.749092;-0.163818;-0.960938;-0.008789
73.749222;-0.161377;-0.956543;-0.006592
73.749313;-0.163818;-0.958008;-0.008301
73.749397;-0.164795;-0.963135;-0.010986
73.846298;-0.163330;-0.956543;-0.006592
73.846436;-0.161133;-0.954346;-0.003174
73.846527;-0.160400;-0.958252;-0.004883
73.846619;-0.164551;-0.959473;-0.009277
73.944107;-0.164551;-0.961914;-0.013428
73.944237;-0.163086;-0.956543;-0.007324
73.944328;-0.162109;-0.956055;-0.007324
73.944412;-0.160156;-0.961182;-0.006592
74.529427;-0.162109;-0.957275;-0.008545
74.529907;-0.164551;-0.959717;-0.009277
74.530006;-0.165283;-0.958496;-0.010254
74.530098;-0.163086;-0.958008;-0.007568
74.531242;-0.163574;-0.960449;-0.006104
74.531342;-0.165039;-0.960205;-0.007568
74.531425;-0.162842;-0.957764;-0.008789
74.531509;-0.164795;-0.958984;-0.009521
74.626541;-0.164551;-0.960449;-0.010498
74.626671;-0.163574;-0.959229;-0.010010
74.626762;-0.163330;-0.958252;-0.008545
74.626846;-0.163086;-0.958252;-0.008789
74.724098;-0.164795;-0.959717;-0.010010
74.724228;-0.163574;-0.959229;-0.010498
74.724770;-0.163818;-0.957764;-0.008301
74.724869;-0.164551;-0.958984;-0.009033
74.727104;-0.162842;-0.959229;-0.009277
74.727188;-0.161133;-0.960205;-0.008057
74.727280;-0.163574;-0.959229;-0.006592
74.727356;-0.163330;-0.959473;-0.011230
74.728218;-0.161865;-0.961426;-0.008789
74.728317;-0.157715;-0.959961;-0.007080
74.728401;-0.164795;-0.958740;-0.010254
74.728485;-0.165039;-0.960449;-0.009521
74.918808;-0.163086;-0.957275;-0.000732
74.918945;-0.161377;-0.957764;-0.003174
74.919044;-0.161865;-0.962158;-0.013184
74.919128;-0.157715;-0.960449;-0.006836
75.016777;-0.157715;-0.959961;-0.005127
75.016899;-0.158936;-0.961426;-0.005371
75.016991;-0.157715;-0.959229;-0.002441
75.017075;-0.158447;-0.957031;-0.001465
75.113838;-0.159912;-0.962646;-0.008789
75.113976;-0.157227;-0.960449;-0.003662
75.114075;-0.160156;-0.957275;-0.003418
75.114159;-0.158691;-0.960693;-0.006104
75.211678;-0.160400;-0.958740;-0.003662
75.211800;-0.159668;-0.959229;-0.005859
75.211884;-0.157471;-0.959473;-0.006836
75.211975;-0.158447;-0.961670;-0.006836
75.796692;-0.156738;-0.960693;-0.006592
75.796822;-0.157715;-0.960449;-0.004883
75.796921;-0.157471;-0.960449;-0.006836
75.797005;-0.159180;-0.959473;-0.007080
75.893852;-0.158447;-0.960205;-0.004883
75.893990;-0.159912;-0.960449;-0.007324
75.894096;-0.159912;-0.960693;-0.008057
75.894188;-0.159424;-0.958496;-0.004395
75.992744;-0.158936;-0.961426;-0.008301
75.992859;-0.157471;-0.962646;-0.010742
75.992943;-0.159668;-0.960205;-0.003174
75.993034;-0.161865;-0.956543;-0.005371
76.088829;-0.161133;-0.959717;-0.006592
76.088974;-0.162354;-0.958008;-0.003174
76.089066;-0.159424;-0.962402;-0.006592
76.089149;-0.161865;-0.958984;-0.006836
76.186913;-0.159912;-0.960938;-0.010254
76.187035;-0.157471;-0.956787;-0.000488
76.187126;-0.158447;-0.960205;-0.004883
76.187210;-0.159180;-0.963867;-0.012695
76.380592;-0.156006;-0.959717;-0.007812
76.380730;-0.159180;-0.958496;-0.008789
76.381180;-0.155518;-0.956787;-0.007324
76.381271;-0.156494;-0.960449;-0.001709
76.382210;-0.158691;-0.959961;-0.006104
76.382317;-0.161133;-0.960938;-0.011963
76.382401;-0.161133;-0.959717;-0.008301
76.382484;-0.162109;-0.957764;-0.001221
76.479904;-0.165039;-0.960449;-0.006592
76.480034;-0.161865;-0.958984;-0.006348
76.480453;-0.163330;-0.958984;-0.008057
76.480545;-0.161865;-0.960205;-0.008057
76.482620;-0.160889;-0.957520;-0.005859
76.482719;-0.160400;-0.959717;-0.007568
76.482819;-0.160156;-0.960693;-0.009277
76.482903;-0.160645;-0.959961;-0.009277
76.576843;-0.162354;-0.957520;-0.007324
76.576981;-0.161377;-0.959229;-0.005615
76.577080;-0.160156;-0.960205;-0.007324
76.577164;-0.162354;-0.958496;-0.005859
76.673943;-0.161377;-0.958740;-0.007568
76.674080;-0.163574;-0.958740;-0.009033
76.674171;-0.162109;-0.959473;-0.008301
76.674263;-0.163086;-0.959473;-0.010254
76.771637;-0.162842;-0.957520;-0.008057
76.771767;-0.158936;-0.958008;-0.005615
76.771858;-0.161133;-0.963379;-0.013184
76.771942;-0.166504;-0.959961;-0.011230
76.868835;-0.162354;-0.956543;-0.008545
76.868973;-0.160156;-0.955811;-0.004395
76.869064;-0.164551;-0.960449;-0.008301
76.869148;-0.164551;-0.962402;-0.012695
76.966751;-0.164795;-0.959961;-0.011230
76.966873;-0.162598;-0.956543;-0.009766
76.966965;-0.162109;-0.956543;-0.010498
76.967049;-0.159180;-0.960938;-0.006592
77.551895;-0.162598;-0.960449;-0.007568
77.552193;-0.163330;-0.960938;-0.012451
77.552299;-0.164062;-0.957520;-0.010010
77.552383;-0.161621;-0.957764;-0.004639
77.650063;-0.165283;-0.959717;-0.008789
77.650192;-0.164795;-0.958984;-0.008057
77.650284;-0.164062;-0.957520;-0.009277
77.650375;-0.165039;-0.960938;-0.010254
77.651558;-0.163330;-0.959229;-0.008545
77.651665;-0.163818;-0.958252;-0.007568
77.651749;-0.165283;-0.959473;-0.009766
77.652077;-0.165527;-0.959229;-0.009521
77.746376;-0.163330;-0.955566;-0.007568
77.746513;-0.162354;-0.959473;-0.008057
77.746613;-0.161865;-0.958984;-0.007568
77.746696;-0.163818;-0.959229;-0.007812
77.844398;-0.164551;-0.958008;-0.010254
77.844849;-0.166504;-0.959229;-0.009277
77.844955;-0.166992;-0.957031;-0.008057
77.845047;-0.163818;-0.957520;-0.007324
77.846519;-0.163818;-0.961182;-0.007812
77.846626;-0.165771;-0.962402;-0.013184
77.846718;-0.163574;-0.957031;-0.009766
77.846802;-0.162354;-0.955078;-0.006592
77.941673;-0.166748;-0.962158;-0.010986
77.941803;-0.167725;-0.961914;-0.014160
77.941895;-0.168701;-0.959717;-0.010742
77.941978;-0.165527;-0.958496;-0.010498
78.038788;-0.163574;-0.956299;-0.010742
78.038918;-0.161621;-0.961182;-0.009033
78.039017;-0.161377;-0.957764;-0.006592
78.039101;-0.165039;-0.958984;-0.012939
78.136665;-0.164062;-0.958252;-0.010254
78.136787;-0.165771;-0.958984;-0.009521
78.136887;-0.168701;-0.958984;-0.009766
78.136971;-0.167480;-0.958496;-0.008057
78.722366;-0.165283;-0.958740;-0.010254
78.722511;-0.166016;-0.960938;-0.011230
78.722610;-0.165283;-0.959473;-0.012207
78.723015;-0.164551;-0.959229;-0.009521
78.724304;-0.165527;-0.959229;-0.010742
78.724922;-0.165771;-0.959961;-0.011719
78.725021;-0.165771;-0.959717;-0.010498
78.725113;-0.165283;-0.959473;-0.011719
78.819427;-0.166016;-0.960205;-0.010498
78.819893;-0.165771;-0.960693;-0.010986
78.819992;-0.165527;-0.958496;-0.010010
78.820084;-0.164551;-0.960449;-0.010254
78.821938;-0.166504;-0.958740;-0.010498
78.822052;-0.164551;-0.956055;-0.009277
78.822136;-0.164551;-0.959229;-0.008057
78.822220;-0.166748;-0.960205;-0.012207
78.915733;-0.164307;-0.960205;-0.014648
78.916214;-0.164551;-0.958008;-0.011230
78.916321;-0.165771;-0.958984;-0.003662
78.916405;-0.167725;-0.960205;-0.010254
78.917351;-0.163086;-0.960449;-0.014160
78.917450;-0.166260;-0.958496;-0.010986
78.917557;-0.165771;-0.957031;-0.010010
78.917641;-0.161377;-0.958984;-0.007324
79.014313;-0.158936;-0.959229;-0.006348
79.014435;-0.162842;-0.960693;-0.010742
79.014526;-0.165039;-0.962402;-0.017334
79.014610;-0.161377;-0.954346;-0.010010
79.599640;-0.159912;-0.958740;-0.006836
79.600166;-0.161865;-0.962891;-0.009033
79.600258;-0.162842;-0.957520;-0.010254
79.600342;-0.163086;-0.958984;-0.010010
79.601753;-0.162842;-0.959961;-0.010986
79.601860;-0.163086;-0.959473;-0.008057
79.601944;-0.161377;-0.959473;-0.007568
79.602028;-0.162842;-0.959717;-0.009277
79.696823;-0.163086;-0.959473;-0.009277
79.696945;-0.160889;-0.958984;-0.008057
79.697037;-0.157471;-0.960205;-0.006592
79.697121;-0.160645;-0.959229;-0.008545
79.891930;-0.162842;-0.959473;-0.010498
79.892067;-0.164795;-0.959717;-0.008301
79.892372;-0.163818;-0.958984;-0.008789
79.892471;-0.164551;-0.958740;-0.011475
79.989166;-0.165039;-0.961182;-0.010986
79.989311;-0.163086;-0.956543;-0.009033
79.989403;-0.163818;-0.959473;-0.006836
79.989494;-0.164795;-0.960449;-0.009521
79.991821;-0.162842;-0.958740;-0.012207
79.991920;-0.162598;-0.957764;-0.010986
79.992004;-0.164307;-0.959229;-0.004395
79.992088;-0.167236;-0.959961;-0.007324
79.992172;-0.169434;-0.960205;-0.011963
79.992256;-0.168701;-0.958740;-0.010254
79.992340;-0.167480;-0.957520;-0.009766
79.992424;-0.166504;-0.959717;-0.009521
80.086403;-0.163330;-0.958008;-0.007080
80.086540;-0.166504;-0.960449;-0.011475
80.086632;-0.165283;-0.961182;-0.015137
80.086723;-0.165771;-0.957275;-0.010498
80.184372;-0.166748;-0.957520;-0.008057
80.184494;-0.166992;-0.959717;-0.011475
80.184586;-0.166992;-0.959717;-0.010742
80.184685;-0.164307;-0.957764;-0.011230
80.281631;-0.165771;-0.959229;-0.011719
80.281769;-0.167236;-0.955811;-0.008789
80.281868;-0.165283;-0.958984;-0.009521
80.281952;-0.167236;-0.958740;-0.011963
80.379547;-0.165527;-0.958008;-0.012207
80.379677;-0.165771;-0.959961;-0.010742
80.379776;-0.169189;-0.959229;-0.010254
80.379860;-0.168701;-0.958008;-0.009277
80.574524;-0.168945;-0.958740;-0.009766
80.574661;-0.166016;-0.960205;-0.011230
80.574753;-0.167725;-0.958252;-0.010254
80.574837;-0.166504;-0.958252;-0.009766
80.671394;-0.168945;-0.959229;-0.010498
80.671539;-0.167480;-0.957520;-0.009521
80.671631;-0.165283;-0.958252;-0.007324
80.671715;-0.166260;-0.963135;-0.013672
80.769241;-0.167969;-0.959961;-0.012207
80.769363;-0.166016;-0.956055;-0.005371
80.769455;-0.163330;-0.955811;-0.005371
80.769547;-0.166260;-0.962646;-0.013672
81.354660;-0.168457;-0.962158;-0.014160
81.355141;-0.168457;-0.956543;-0.011719
81.355247;-0.165283;-0.956787;-0.012939
81.355331;-0.161865;-0.957764;-0.006104
81.356483;-0.164062;-0.958496;-0.008057
81.356583;-0.167969;-0.961182;-0.010742
81.356667;-0.167969;-0.957764;-0.010498
81.356750;-0.168213;-0.956543;-0.009277
81.453384;-0.166992;-0.958984;-0.007080
81.454117;-0.169678;-0.960938;-0.010742
81.454308;-0.167480;-0.958008;-0.010742
81.454391;-0.167725;-0.958252;-0.010010
81.550102;-0.166504;-0.959473;-0.012695
81.550575;-0.168457;-0.958496;-0.010742
81.550674;-0.168457;-0.957520;-0.008545
81.550758;-0.168213;-0.959229;-0.010010
81.552277;-0.165283;-0.958984;-0.012695
81.552383;-0.169678;-0.958252;-0.009521
81.552483;-0.167969;-0.958984;-0.009033
81.552567;-0.169189;-0.956787;-0.009033
81.646484;-0.167236;-0.957764;-0.009277
81.646965;-0.165771;-0.959961;-0.010254
81.647064;-0.168945;-0.958984;-0.010254
81.647148;-0.167236;-0.958008;-0.009277
81.648270;-0.168457;-0.958984;-0.007812
81.648376;-0.165283;-0.960449;-0.013428
81.648460;-0.166992;-0.958984;-0.012451
81.648544;-0.166016;-0.956299;-0.005615
81.841515;-0.168457;-0.959473;-0.009521
81.841652;-0.170410;-0.960449;-0.012207
81.841743;-0.169434;-0.959229;-0.012695
81.841827;-0.168945;-0.956299;-0.012939
81.939774;-0.166992;-0.956543;-0.009521
81.939911;-0.166992;-0.958984;-0.009521
81.940002;-0.165527;-0.956299;-0.009277
81.940094;-0.167725;-0.958984;-0.010986
82.036423;-0.163574;-0.958496;-0.013184
82.036560;-0.167480;-0.958984;-0.010986
82.036659;-0.168945;-0.958740;-0.010498
82.036743;-0.169189;-0.957520;-0.013672
82.231491;-0.172607;-0.960449;-0.013428
82.231628;-0.171387;-0.958008;-0.013184
82.231720;-0.170166;-0.958008;-0.014648
82.231804;-0.169434;-0.957275;-0.010986
82.329155;-0.165771;-0.956787;-0.009766
82.329292;-0.163330;-0.958984;-0.013672
82.329384;-0.165771;-0.958252;-0.010254
82.329475;-0.168213;-0.959961;-0.009277
82.427330;-0.165771;-0.959717;-0.012939
82.427452;-0.167236;-0.957764;-0.011719
82.427544;-0.166504;-0.960205;-0.012695
82.427628;-0.163818;-0.958252;-0.013428
82.524292;-0.168213;-0.957520;-0.009766
82.524460;-0.166992;-0.960205;-0.013672
82.524551;-0.166016;-0.957764;-0.010254
82.524635;-0.168213;-0.959473;-0.009521
83.109711;-0.166016;-0.959961;-0.013672
83.110184;-0.163330;-0.958496;-0.013672
83.110283;-0.165527;-0.956299;-0.009277
83.110367;-0.166504;-0.958984;-0.006836
83.111496;-0.167725;-0.960449;-0.014648
83.111603;-0.166260;-0.960938;-0.014160
83.111687;-0.165039;-0.958740;-0.012939
83.111771;-0.163574;-0.958008;-0.012939
83.207001;-0.162109;-0.959473;-0.007080
83.207474;-0.164062;-0.956787;-0.008301
83.207573;-0.161621;-0.958740;-0.013672
83.207657;-0.163818;-0.959961;-0.013428
83.209503;-0.163818;-0.956055;-0.009521
83.209610;-0.167969;-0.959961;-0.010254
83.209702;-0.167969;-0.959473;-0.010986
83.209778;-0.166016;-0.959473;-0.011963
83.303352;-0.165039;-0.959961;-0.012451
83.303490;-0.164795;-0.958496;-0.010254
83.303581;-0.163086;-0.958740;-0.012207
83.303673;-0.163574;-0.958740;-0.012451
83.401138;-0.163574;-0.957764;-0.012695
83.401268;-0.164307;-0.958984;-0.012451
83.401360;-0.166260;-0.958984;-0.010010
83.401451;-0.166016;-0.957275;-0.008789
83.499306;-0.166748;-0.959473;-0.011230
83.499428;-0.163818;-0.960205;-0.012451
83.499519;-0.163086;-0.958496;-0.011475
83.499611;-0.163330;-0.958008;-0.012695
83.597008;-0.165527;-0.959229;-0.013184
83.597130;-0.165039;-0.960205;-0.014160
83.597221;-0.163818;-0.957764;-0.012207
83.597305;-0.164307;-0.960938;-0.008301
83.694099;-0.166504;-0.960449;-0.014160
83.694244;-0.164551;-0.959717;-0.014404
83.694336;-0.164307;-0.957275;-0.009766
83.694420;-0.166260;-0.958496;-0.006592
83.792023;-0.171143;-0.960693;-0.010742
83.792160;-0.165771;-0.961182;-0.015381
83.792252;-0.164307;-0.958740;-0.013672
83.792336;-0.165283;-0.959473;-0.013428
84.376907;-0.165527;-0.957764;-0.008545
84.377045;-0.164551;-0.956787;-0.009766
84.377136;-0.166748;-0.961182;-0.014404
84.377228;-0.167236;-0.958008;-0.015869
84.473694;-0.165039;-0.957520;-0.010986
84.473824;-0.168213;-0.959229;-0.009521
84.473915;-0.168701;-0.959229;-0.011719
84.474007;-0.167236;-0.957764;-0.012207
84.475639;-0.164062;-0.959717;-0.013916
84.475731;-0.166992;-0.959717;-0.012207
84.475815;-0.168213;-0.958740;-0.008545
84.475899;-0.167236;-0.958984;-0.011230
84.571815;-0.166504;-0.959229;-0.012207
84.571945;-0.166504;-0.958252;-0.011719
84.572052;-0.168457;-0.958740;-0.010742
84.572136;-0.168457;-0.959473;-0.008057
84.669922;-0.169922;-0.957031;-0.010254
84.670036;-0.168213;-0.958984;-0.011475
84.670128;-0.167725;-0.959229;-0.009033
84.670540;-0.167969;-0.958740;-0.010010
84.671875;-0.169434;-0.958984;-0.010010
84.671959;-0.166748;-0.959717;-0.011963
84.672043;-0.168945;-0.957275;-0.010010
84.672127;-0.168945;-0.959473;-0.010254
84.766495;-0.167725;-0.956299;-0.009277
84.766617;-0.171143;-0.960938;-0.010498
84.766716;-0.170410;-0.959717;-0.013916
84.766800;-0.167236;-0.955566;-0.008301
84.863983;-0.166748;-0.955078;-0.004395
84.864120;-0.167969;-0.959961;-0.010498
84.864212;-0.169189;-0.960693;-0.016113
84.864296;-0.170166;-0.958496;-0.012939
84.961830;-0.168457;-0.956543;-0.013184
84.961952;-0.165527;-0.957275;-0.010986
84.962036;-0.165771;-0.959229;-0.009521
84.962120;-0.167236;-0.957520;-0.009766
85.059174;-0.168457;-0.960449;-0.014404
85.059303;-0.167725;-0.959473;-0.013916
85.059402;-0.166260;-0.957275;-0.012695
85.059486;-0.170898;-0.958252;-0.012451
85.254051;-0.170654;-0.957031;-0.011963
85.254189;-0.167969;-0.958984;-0.013916
85.254280;-0.166992;-0.959961;-0.014404
85.254379;-0.167969;-0.960205;-0.015137
85.352234;-0.169434;-0.957764;-0.015869
85.352371;-0.169678;-0.958496;-0.012207
85.352470;-0.169434;-0.961670;-0.015625
85.352554;-0.167480;-0.960449;-0.015137
85.448997;-0.166504;-0.957275;-0.015869
85.449135;-0.165527;-0.956055;-0.015137
85.449226;-0.166992;-0.960449;-0.014160
85.449318;-0.167236;-0.959961;-0.014893
85.546898;-0.166992;-0.959473;-0.013916
85.547020;-0.166748;-0.957520;-0.013672
85.547112;-0.167480;-0.958984;-0.015381
85.547195;-0.168213;-0.958496;-0.012207
86.132774;-0.169434;-0.959229;-0.012451
86.132919;-0.164551;-0.957764;-0.013672
86.133011;-0.167236;-0.960693;-0.013672
86.133095;-0.166016;-0.958252;-0.016846
86.134186;-0.170166;-0.958740;-0.017822
86.134407;-0.166260;-0.957031;-0.011475
86.134506;-0.169189;-0.957520;-0.010498
86.134590;-0.170410;-0.959473;-0.015625
86.229607;-0.170898;-0.961182;-0.017822
86.229744;-0.170166;-0.958252;-0.015869
86.229836;-0.166504;-0.956787;-0.015381
86.230385;-0.168701;-0.960205;-0.010498
86.327003;-0.164795;-0.959473;-0.011719
86.327141;-0.166992;-0.958252;-0.016113
86.327400;-0.167725;-0.960449;-0.018311
86.327499;-0.164062;-0.957275;-0.013428
86.423363;-0.164307;-0.958740;-0.012939
86.423500;-0.167480;-0.959717;-0.013916
86.423592;-0.165527;-0.959717;-0.014160
86.423676;-0.164795;-0.959473;-0.014893
86.532082;-0.168701;-0.959717;-0.016113
86.532173;-0.168457;-0.957520;-0.010254
86.532265;-0.163086;-0.957275;-0.013916
86.532349;-0.164551;-0.960693;-0.015625
86.534286;-0.165283;-0.960693;-0.012695
86.534378;-0.167236;-0.959229;-0.012207
86.534462;-0.166504;-0.959229;-0.013428
86.534561;-0.167236;-0.960205;-0.014893
86.619057;-0.166260;-0.958252;-0.015137
86.619194;-0.165527;-0.959717;-0.013184
86.619293;-0.165771;-0.960449;-0.014893
86.619377;-0.164795;-0.958496;-0.014648
86.716827;-0.165283;-0.960693;-0.014648
86.716957;-0.166016;-0.959717;-0.015625
86.717049;-0.165527;-0.959961;-0.014404
86.717133;-0.165039;-0.958252;-0.013184
86.814041;-0.168457;-0.959229;-0.011230
86.814178;-0.167236;-0.959229;-0.015381
86.814270;-0.167969;-0.958740;-0.018311
86.814362;-0.163818;-0.958984;-0.014404
87.009666;-0.167480;-0.956299;-0.009521
87.009804;-0.166260;-0.959717;-0.014648
87.009911;-0.168457;-0.962646;-0.021973
87.009995;-0.166992;-0.958984;-0.015869
87.106697;-0.165039;-0.957275;-0.015137
87.106834;-0.166748;-0.959229;-0.011963
87.106934;-0.164551;-0.958008;-0.012451
87.107018;-0.166992;-0.960938;-0.014160
87.206741;-0.170166;-0.960693;-0.017578
87.206879;-0.165283;-0.958008;-0.013916
87.206970;-0.168213;-0.957031;-0.011719
87.207054;-0.167969;-0.958984;-0.015381
87.399063;-0.166992;-0.957764;-0.015381
87.399200;-0.168213;-0.957520;-0.015381
87.399300;-0.168945;-0.959229;-0.016357
87.399384;-0.164795;-0.959961;-0.014160
87.497269;-0.167480;-0.959473;-0.014160
87.497406;-0.166504;-0.959473;-0.014404
87.497505;-0.167236;-0.958496;-0.013428
87.497589;-0.166748;-0.958740;-0.013916
87.594025;-0.167480;-0.959229;-0.014893
87.594170;-0.168457;-0.958496;-0.012939
87.594261;-0.167969;-0.957764;-0.012451
87.594345;-0.166504;-0.960449;-0.015137
87.692780;-0.168457;-0.958008;-0.011475
87.692894;-0.167236;-0.959229;-0.013672
87.692993;-0.167725;-0.958496;-0.013916
87.693077;-0.168701;-0.956543;-0.014404
88.277130;-0.167480;-0.957764;-0.013184
88.277275;-0.167480;-0.955566;-0.012207
88.277367;-0.171631;-0.961670;-0.017090
88.277794;-0.169434;-0.960693;-0.016113
88.278931;-0.167480;-0.954346;-0.012451
88.279030;-0.166016;-0.956543;-0.011230
88.279114;-0.168945;-0.962158;-0.016602
88.279198;-0.170898;-0.960449;-0.017090
88.374023;-0.171631;-0.956055;-0.015625
88.374161;-0.167236;-0.957764;-0.014893
88.374252;-0.166016;-0.958984;-0.013916
88.374336;-0.167480;-0.958496;-0.012695
88.472038;-0.167725;-0.958740;-0.015381
88.472160;-0.168701;-0.958984;-0.015381
88.472252;-0.166748;-0.957764;-0.013916
88.472336;-0.168457;-0.958252;-0.012207
88.569534;-0.171143;-0.958252;-0.014404
88.569977;-0.169189;-0.958984;-0.016113
88.570084;-0.168457;-0.959473;-0.014648
88.570168;-0.168701;-0.958008;-0.014404
88.572021;-0.171387;-0.956299;-0.016357
88.572121;-0.168945;-0.958008;-0.014648
88.572205;-0.168945;-0.957520;-0.016357
88.572357;-0.168945;-0.959961;-0.015625
88.666588;-0.170654;-0.958008;-0.016113
88.666725;-0.168701;-0.956543;-0.015625
88.666824;-0.169678;-0.956543;-0.016357
88.666908;-0.168213;-0.957764;-0.014648
88.764450;-0.171387;-0.958740;-0.017090
88.764572;-0.170654;-0.958740;-0.016846
88.764664;-0.172119;-0.957275;-0.016113
88.764748;-0.171387;-0.956055;-0.016846
88.861557;-0.172363;-0.957764;-0.016357
88.861694;-0.168945;-0.958740;-0.015137
88.861786;-0.172607;-0.958496;-0.018066
88.861870;-0.171143;-0.956543;-0.017090
88.959496;-0.169922;-0.956055;-0.015869
88.959618;-0.169678;-0.958496;-0.014648
88.959709;-0.172852;-0.959717;-0.020020
88.959801;-0.171143;-0.958740;-0.016602
89.544754;-0.169434;-0.957031;-0.017822
89.545052;-0.169678;-0.959473;-0.017090
89.545174;-0.167725;-0.958984;-0.014160
89.545258;-0.168457;-0.957275;-0.015381
89.641853;-0.169434;-0.958496;-0.017578
89.641998;-0.168213;-0.958252;-0.016357
89.642090;-0.168457;-0.959473;-0.016113
89.642174;-0.168213;-0.957275;-0.012695
89.643417;-0.169678;-0.956299;-0.013428
89.643517;-0.169922;-0.955322;-0.014404
89.643608;-0.168701;-0.957764;-0.013672
89.643684;-0.165039;-0.957520;-0.014160
89.739426;-0.167480;-0.960205;-0.016602
89.739555;-0.166016;-0.959473;-0.014893
89.739983;-0.166260;-0.958008;-0.013672
89.740074;-0.167480;-0.958740;-0.014404
89.742088;-0.170898;-0.958496;-0.012695
89.742180;-0.168457;-0.958984;-0.012939
89.742264;-0.169922;-0.957275;-0.011963
89.742348;-0.167236;-0.958252;-0.012939
89.835915;-0.174805;-0.957520;-0.009766
89.836395;-0.171875;-0.956787;-0.011475
89.836502;-0.170898;-0.957031;-0.015625
89.836586;-0.169922;-0.957520;-0.013428
89.837524;-0.169678;-0.955322;-0.014648
89.837631;-0.169189;-0.958008;-0.011719
89.837723;-0.167480;-0.961426;-0.018555
89.837807;-0.168701;-0.959961;-0.017822
90.031647;-0.167480;-0.956787;-0.016357
90.031784;-0.167725;-0.955811;-0.012451
90.031876;-0.172363;-0.958496;-0.015869
90.031967;-0.173584;-0.960449;-0.018555
90.129410;-0.171875;-0.958252;-0.016602
90.129532;-0.169434;-0.956543;-0.016357
90.129623;-0.168213;-0.956787;-0.013916
90.129707;-0.168457;-0.956787;-0.010254
90.226547;-0.166992;-0.957764;-0.013916
90.226685;-0.170654;-0.959961;-0.019043
90.226784;-0.167480;-0.956787;-0.014893
90.226868;-0.165771;-0.956787;-0.012695
90.422043;-0.168945;-0.961426;-0.015869
90.422180;-0.168701;-0.958008;-0.013916
90.422272;-0.169434;-0.956543;-0.016602
90.422371;-0.170166;-0.957764;-0.016846
90.519371;-0.168701;-0.956299;-0.013916
90.519501;-0.167969;-0.957031;-0.015381
90.519592;-0.166748;-0.959961;-0.015625
90.519676;-0.167969;-0.957275;-0.013916
90.617287;-0.166504;-0.959717;-0.014404
90.617409;-0.167969;-0.958008;-0.013916
90.617493;-0.169678;-0.957275;-0.016113
90.617577;-0.168457;-0.959229;-0.017090
90.811684;-0.169189;-0.959717;-0.016846
90.811821;-0.168945;-0.957764;-0.016357
90.811913;-0.167725;-0.958252;-0.013916
90.811996;-0.170166;-0.957520;-0.016846
90.909454;-0.171875;-0.958008;-0.014893
90.909584;-0.171631;-0.957275;-0.014648
90.909683;-0.166260;-0.956787;-0.014893
90.909782;-0.169678;-0.962158;-0.017090
91.006668;-0.172119;-0.958008;-0.016602
91.006805;-0.170898;-0.956543;-0.017578
91.006897;-0.169922;-0.954102;-0.012939
91.006981;-0.170166;-0.955811;-0.013672
91.104790;-0.173828;-0.959473;-0.018799
91.104927;-0.171387;-0.960449;-0.018555
91.105019;-0.171143;-0.957764;-0.016846
91.105103;-0.167725;-0.956787;-0.014404
91.689857;-0.166748;-0.959229;-0.012939
91.690346;-0.169189;-0.957275;-0.011230
91.690445;-0.174072;-0.958496;-0.018066
91.690536;-0.168945;-0.957031;-0.015381
91.691597;-0.169922;-0.955078;-0.015869
91.691696;-0.168945;-0.958496;-0.013672
91.691772;-0.169922;-0.957520;-0.013672
91.692245;-0.171631;-0.957031;-0.015381
91.786896;-0.170410;-0.959961;-0.016846
91.787132;-0.168701;-0.958252;-0.014893
91.787231;-0.168701;-0.956543;-0.012939
91.787315;-0.170166;-0.959229;-0.015381
91.884407;-0.170654;-0.957520;-0.015625
91.884537;-0.170898;-0.957275;-0.014160
91.884628;-0.171875;-0.958008;-0.016602
91.884720;-0.171143;-0.956299;-0.013916
91.982155;-0.170654;-0.957764;-0.015137
91.982605;-0.170410;-0.957275;-0.014893
91.982697;-0.172119;-0.959229;-0.014648
91.982788;-0.172119;-0.957764;-0.016113
91.984268;-0.172119;-0.957520;-0.017090
91.984520;-0.172363;-0.960205;-0.016357
91.984612;-0.170166;-0.955566;-0.013916
91.984695;-0.170654;-0.959473;-0.015869
92.078804;-0.174805;-0.961426;-0.019287
92.078934;-0.172607;-0.957275;-0.014160
92.079025;-0.170654;-0.953857;-0.010742
92.079117;-0.169434;-0.957764;-0.013672
92.176590;-0.175781;-0.961182;-0.018066
92.176727;-0.174561;-0.958008;-0.016846
92.176819;-0.172119;-0.955078;-0.015381
92.176910;-0.171143;-0.955078;-0.015137
92.274513;-0.168213;-0.959473;-0.013916
92.274643;-0.171387;-0.956787;-0.015869
92.274734;-0.173340;-0.957520;-0.017578
92.274826;-0.174072;-0.958252;-0.018311
92.371597;-0.172119;-0.955566;-0.016846
92.371735;-0.172607;-0.956543;-0.016357
92.371826;-0.176270;-0.959229;-0.017090
92.371910;-0.173828;-0.957031;-0.017578
92.566605;-0.174316;-0.957520;-0.018066
92.566742;-0.175049;-0.959473;-0.018066
92.566841;-0.173096;-0.957520;-0.017334
92.566925;-0.173584;-0.958008;-0.017334
92.664665;-0.172363;-0.957520;-0.018066
92.664795;-0.174561;-0.957520;-0.017578
92.664886;-0.173584;-0.956299;-0.016602
92.664970;-0.173096;-0.957031;-0.017090
92.761932;-0.171875;-0.958984;-0.017090
92.762054;-0.172363;-0.957764;-0.016357
92.762146;-0.171143;-0.957520;-0.017334
92.762230;-0.173584;-0.957764;-0.017822
92.859108;-0.173584;-0.958252;-0.017822
92.859245;-0.172363;-0.957275;-0.017578
92.859451;-0.170410;-0.958984;-0.013916
92.859543;-0.173096;-0.959229;-0.018555
93.054115;-0.174561;-0.957520;-0.018799
93.054253;-0.172607;-0.955322;-0.018066
93.054344;-0.170898;-0.956543;-0.015137
93.054428;-0.174805;-0.958984;-0.016602
93.152023;-0.175049;-0.959473;-0.018066
93.152153;-0.170166;-0.954834;-0.015137
93.152245;-0.169434;-0.957520;-0.017822
93.152328;-0.168213;-0.960693;-0.016602
93.249115;-0.167969;-0.957275;-0.013672
93.249252;-0.172607;-0.956787;-0.017090
93.249344;-0.173096;-0.960938;-0.019043
93.249428;-0.168457;-0.956543;-0.015381
93.444138;-0.169434;-0.958008;-0.014893
93.444275;-0.173828;-0.958496;-0.016846
93.444550;-0.172119;-0.958008;-0.016846
93.444633;-0.172119;-0.957520;-0.018066
93.541962;-0.171143;-0.959229;-0.017578
93.542084;-0.168701;-0.957520;-0.014893
93.542168;-0.168945;-0.958740;-0.015137
93.542259;-0.170410;-0.957520;-0.016357
93.639160;-0.171387;-0.955322;-0.016113
93.639297;-0.170898;-0.959473;-0.016357
93.639404;-0.172852;-0.958252;-0.016846
93.639488;-0.171387;-0.956299;-0.016602
93.834175;-0.170166;-0.959717;-0.017334
93.834320;-0.172119;-0.958496;-0.017822
93.834412;-0.169678;-0.958252;-0.014893
93.834496;-0.171143;-0.957275;-0.015869
93.932190;-0.173340;-0.960205;-0.017578
93.932327;-0.172363;-0.956787;-0.017578
93.932419;-0.168701;-0.958984;-0.014893
93.932510;-0.172607;-0.958984;-0.017334
94.029297;-0.173340;-0.959229;-0.018555
94.029449;-0.167725;-0.956787;-0.013672
94.029541;-0.167480;-0.955566;-0.011230
94.029625;-0.169189;-0.958740;-0.017090
94.224136;-0.167236;-0.962646;-0.020264
94.224388;-0.168701;-0.958252;-0.017090
94.224495;-0.167725;-0.958252;-0.016602
94.224579;-0.165283;-0.960938;-0.013672
94.321968;-0.164062;-0.957031;-0.012939
94.322098;-0.169189;-0.959961;-0.017334
94.322189;-0.169922;-0.959961;-0.017090
94.322273;-0.165039;-0.956787;-0.014648
94.419136;-0.167725;-0.959717;-0.014648
94.419273;-0.168701;-0.958496;-0.013916
94.419365;-0.168213;-0.957275;-0.014648
94.419456;-0.171143;-0.959229;-0.018311
94.517067;-0.170898;-0.958496;-0.016113
94.517189;-0.169922;-0.958496;-0.016846
94.517281;-0.169678;-0.958984;-0.017822
94.517365;-0.170166;-0.957031;-0.017578
95.102730;-0.169922;-0.957031;-0.016113
95.102859;-0.171143;-0.957031;-0.016846
95.102951;-0.169922;-0.958008;-0.016113
95.103043;-0.169678;-0.958496;-0.015869
95.105087;-0.169922;-0.958008;-0.016113
95.105179;-0.169189;-0.957275;-0.016113
95.105545;-0.172119;-0.957031;-0.017578
95.105644;-0.169678;-0.957764;-0.015381
95.199715;-0.169189;-0.958496;-0.016602
95.199852;-0.171631;-0.958496;-0.017334
95.199951;-0.170898;-0.956543;-0.016357
95.200035;-0.170166;-0.958984;-0.011719
95.297661;-0.173340;-0.960938;-0.018555
95.297806;-0.173584;-0.957520;-0.017334
95.297897;-0.169678;-0.955322;-0.011230
95.297981;-0.170654;-0.955322;-0.013428
95.299576;-0.173828;-0.958984;-0.017090
95.299667;-0.172607;-0.959473;-0.016357
95.300339;-0.173096;-0.957520;-0.018066
95.300446;-0.173096;-0.958008;-0.017822
95.300529;-0.168945;-0.957764;-0.010742
95.300613;-0.166748;-0.957764;-0.012939
95.300690;-0.171387;-0.959717;-0.016113
95.300774;-0.172852;-0.957031;-0.017090
95.394630;-0.168457;-0.954346;-0.014404
95.394753;-0.169922;-0.956543;-0.015381
95.394844;-0.173828;-0.960693;-0.014893
95.394943;-0.173828;-0.957520;-0.015869
95.590935;-0.174072;-0.956543;-0.018066
95.591080;-0.173340;-0.957275;-0.018311
95.591171;-0.172363;-0.956299;-0.016357
95.591263;-0.172363;-0.956055;-0.016602
95.687447;-0.173096;-0.958740;-0.017090
95.687584;-0.172852;-0.957031;-0.016602
95.687683;-0.172607;-0.956055;-0.017822
95.687767;-0.172119;-0.956055;-0.016602
95.784462;-0.173096;-0.958008;-0.016846
95.784599;-0.175049;-0.957520;-0.016602
95.784691;-0.172607;-0.957275;-0.016602
95.784782;-0.173828;-0.958008;-0.016357
95.979164;-0.174805;-0.957275;-0.015381
95.979301;-0.168213;-0.958008;-0.014160
95.979393;-0.173828;-0.959717;-0.018311
95.979477;-0.175049;-0.958496;-0.018311
96.076965;-0.170898;-0.953369;-0.013672
96.077087;-0.170898;-0.955811;-0.012207
96.077187;-0.176025;-0.958740;-0.017334
96.077271;-0.177490;-0.959473;-0.018799
96.174164;-0.176514;-0.956543;-0.018066
96.174301;-0.171875;-0.953369;-0.015625
96.174400;-0.172119;-0.958740;-0.015137
