timestamp;value
0.115904;0.845000
0.960904;0.927000
1.887904;0.921000
2.808904;0.875000
3.683904;0.814000
4.497904;0.913000
5.410904;0.905000
6.315904;0.899000
7.214904;0.887000
8.101904;0.805000
8.906904;0.733000
9.639904;0.714000
10.353904;0.716000
11.069904;0.745000
11.814904;0.774000
12.588904;0.878000
13.466904;1.022000
14.488904;1.066000
15.554904;0.987000
16.541904;1.003000
17.544905;0.974000
18.518904;0.886000
19.404903;0.810000
20.214905;0.839000
21.053904;0.971000
22.024904;0.962000
22.986904;0.912000
23.898905;1.027000
24.925903;1.040000
25.965904;0.959000
26.924904;0.889000
27.813904;0.959000
28.772903;1.081000
29.853905;1.064000
30.917904;0.964000
31.881905;0.974000
32.855904;0.964000
33.819904;0.837000
34.656902;0.751000
35.407906;0.863000
36.270905;1.066000
37.336903;1.084000
38.420902;0.992000
39.412903;1.034000
40.446903;1.023000
41.469902;0.958000
42.427902;0.886000
43.313904;0.917000
44.230904;0.990000
45.220905;0.962000
46.182903;0.991000
47.173904;1.118000
48.291904;1.115000
49.406902;0.998000
50.404903;0.913000
51.317905;0.936000
52.253902;1.029000
53.282906;1.094000
54.376904;1.171000
55.547905;1.119000
56.666904;1.066000
57.732903;1.086000
58.818905;1.016000
59.834904;1.018000
60.852905;1.064000
61.916904;1.062000
62.978905;0.951000
63.929905;1.002000
64.931900;1.013000
65.944901;0.991000
66.935905;1.000000
67.935905;1.114000
69.049904;1.152000
70.201904;1.061000
71.262901;1.021000
72.283905;1.007000
73.290901;0.975000
74.265907;0.955000
75.220901;1.048000
76.268906;1.006000
77.274902;0.948000
78.222900;0.958000
79.180901;1.010000
80.190903;1.016000
81.206902;0.931000
82.137901;0.975000
83.112907;1.012000
84.124901;1.068000
85.192902;1.046000
86.238907;1.078000
87.316902;1.044000
88.360901;0.973000
89.333900;1.043000
90.376907;1.053000
91.429901;1.012000
92.441902;0.983000
93.424904;1.010000
94.434906;1.043000
95.477905;0.948000
96.425903;0.919000
97.344902;0.907000
98.251907;0.952000
99.203903;0.899000
100.102905;0.942000
101.044907;0.962000
102.006905;0.958000
102.964905;0.906000
103.870903;0.950000
104.820908;0.969000
105.789902;0.961000
106.750900;0.948000
107.698906;0.916000
108.614906;0.869000
109.483902;0.827000
110.310905;0.813000
111.123901;0.887000
112.010902;1.142000
113.152901;1.089000
114.241905;1.052000
115.293907;1.063000
116.356903;0.979000
117.335907;0.999000
118.334908;1.014000
119.348907;0.968000
120.316902;0.877000
121.193901;0.850000
122.043907;0.783000
122.826904;0.798000
123.624901;0.894000
124.518906;0.977000
125.495903;1.014000
126.509903;0.944000
127.453903;0.891000
128.344910;0.937000
129.281906;0.979000
130.260910;0.954000
131.214905;0.902000
132.116898;0.946000
133.062897;0.984000
134.046906;0.959000
135.005905;0.900000
135.905899;0.885000
136.790909;0.899000
137.689911;0.882000
138.571899;0.850000
139.421906;0.911000
140.332901;0.947000
141.279907;0.987000
142.266907;0.923000
143.189911;0.972000
144.161911;0.991000
145.152908;0.959000
146.111908;0.883000
146.994904;0.897000
147.891907;0.896000
148.787903;0.914000
149.701904;0.843000
150.544907;0.820000
151.364899;0.862000
152.226898;0.912000
153.138901;0.938000
154.076904;0.906000
154.982910;0.954000
155.936905;1.027000
156.963898;1.054000
158.017899;0.973000
158.990906;0.969000
159.959900;0.991000
160.950897;1.011000
161.961899;0.985000
162.946899;1.017000
163.963898;1.041000
165.004898;1.049000
166.053909;1.018000
167.071899;1.077000
168.148911;0.968000
169.116898;0.954000
170.070908;1.042000
171.112900;1.138000
172.250900;1.067000
173.317902;1.040000
174.357910;1.021000
175.378906;0.989000
176.367905;0.953000
177.320908;0.974000
178.294907;0.940000
179.234909;0.935000
180.169907;0.978000
181.147903;0.999000
182.146912;0.942000
183.088898;0.982000
184.070908;1.040000
185.110901;1.016000
186.126907;0.971000
187.097900;0.999000
188.096909;1.005000
189.101898;1.004000
190.105911;0.953000
191.058899;0.939000
191.997910;0.962000
192.959900;0.925000
193.884903;0.973000
194.857910;1.016000
195.873901;0.896000
196.769897;0.990000
197.759903;1.081000
198.840897;1.045000
199.885910;0.983000
200.868896;1.002000
201.870911;1.015000
202.885910;0.939000
203.824905;0.914000
204.738907;0.923000
205.661911;0.958000
206.619904;0.908000
207.527908;0.922000
208.449905;0.976000
209.425903;0.995000
210.420898;0.926000
211.346909;0.967000
212.313904;1.014000
213.327911;0.990000
214.317902;0.903000
215.220901;0.920000
216.140900;0.924000
217.064911;0.907000
217.971909;0.870000
218.841904;0.869000
219.710907;0.845000
220.555908;0.775000
221.330902;0.840000
222.170898;0.809000
222.979904;0.841000
223.820908;0.854000
224.674911;0.858000
225.532898;0.814000
226.346909;0.780000
227.126907;0.801000
227.927902;0.793000
228.720901;0.785000
229.505905;0.763000
230.268906;0.785000
231.053909;0.857000
231.910904;0.948000
232.858902;0.958000
233.816910;0.983000
234.799911;1.005000
235.804901;0.985000
236.789902;0.897000
237.686905;0.865000
238.551910;0.860000
239.411911;0.875000
240.286911;0.857000
241.143906;0.845000
241.988907;0.898000
242.886902;0.956000
243.842911;0.975000
244.817902;0.914000
245.731903;0.914000
246.645905;0.898000
247.543900;0.881000
248.424911;0.831000
249.255905;0.912000
250.167908;0.932000
251.099899;0.918000
252.017899;0.988000
253.005905;1.016000
254.021912;1.002000
255.023911;0.964000
255.987900;0.980000
256.967896;0.962000
257.929901;0.861000
258.790894;0.831000
259.621918;0.808000
260.429901;0.786000
261.215912;0.802000
262.017914;0.778000
262.795898;0.848000
263.643890;0.910000
264.553894;0.981000
265.534912;0.898000
266.432892;0.907000
267.339905;0.913000
268.252899;0.874000
269.126892;0.835000
269.961914;0.859000
270.820892;0.851000
271.671906;0.869000
272.540894;0.837000
273.377899;0.862000
274.239899;0.868000
275.107910;0.861000
275.968903;0.830000
276.798889;0.855000
277.653900;0.869000
278.522919;0.830000
279.352905;0.842000
280.194916;0.830000
281.024902;0.847000
281.871918;0.793000
282.664917;0.777000
283.441895;0.796000
284.237915;0.832000
285.069916;0.869000
285.938904;0.917000
286.855896;0.897000
287.752899;0.844000
288.596893;0.843000
289.439911;0.821000
290.260895;0.806000
291.066895;0.773000
291.839905;0.794000
292.633911;0.803000
293.436890;0.795000
294.231903;0.757000
294.988892;0.734000
295.722900;0.770000
296.492889;0.797000
297.289917;0.868000
298.157898;0.818000
298.975891;0.817000
299.792908;0.842000
300.634918;0.872000
301.506897;0.828000
302.334900;0.796000
303.130890;0.814000
303.944916;0.810000
304.754913;0.796000
305.550903;0.766000
306.316895;0.779000
307.095917;0.807000
307.902893;0.825000
308.727905;0.820000
309.547913;0.868000
310.415894;0.835000
311.250916;0.849000
312.099915;0.841000
312.940918;0.774000
313.714905;0.724000
314.438904;0.714000
315.152893;0.673000
315.825897;0.657000
316.482910;0.625000
317.107910;0.615000
317.722900;0.616000
318.338898;0.600000
318.938904;0.589000
319.527893;0.590000
320.117889;0.589000
320.706909;0.583000
321.289917;0.570000
321.859894;0.560000
322.419891;0.565000
322.984894;0.578000
323.562897;0.570000
324.132904;0.561000
324.693909;0.555000
325.248901;0.541000
325.789917;0.536000
326.325897;0.526000
326.851898;0.534000
327.385895;0.548000
327.933899;0.579000
328.512909;0.613000
329.125916;0.628000
329.753906;0.595000
330.348907;0.621000
330.969910;0.578000
331.547913;0.573000
332.120911;0.568000
332.688904;0.569000
333.257904;0.572000
333.829895;0.559000
334.388916;0.550000
334.938904;0.543000
335.481903;0.548000
336.029907;0.550000
336.579895;0.546000
337.125916;0.545000
337.670898;0.541000
338.211914;0.542000
338.753906;0.542000
339.295898;0.541000
339.836914;0.544000
340.380890;0.548000
340.928894;0.549000
341.477905;0.551000
342.028900;0.539000
342.567902;0.527000
343.094910;0.526000
343.620911;0.519000
344.139893;0.517000
344.656891;0.510000
345.166901;0.505000
345.671906;0.502000
346.173889;0.504000
346.677917;0.510000
347.187897;0.507000
347.694916;0.508000
348.202911;0.506000
348.708893;0.511000
349.219910;0.518000
349.737915;0.523000
350.260895;0.518000
350.778900;0.524000
351.302917;0.526000
351.828918;0.539000
352.367889;0.540000
352.907898;0.535000
353.442902;0.526000
353.968903;0.537000
354.505890;0.535000
355.040894;0.535000
355.575897;0.530000
356.105896;0.523000
356.628906;0.541000
357.169891;0.427000
357.596893;0.624000
358.220917;0.536000
358.756897;0.553000
359.309906;0.558000
359.867889;0.546000
360.413910;0.543000
360.956909;0.543000
361.499908;0.561000
362.060913;0.564000
362.624908;0.583000
363.207916;0.580000
363.787903;0.566000
364.353912;0.567000
364.920898;0.561000
365.481903;0.561000
366.042908;0.556000
366.598907;0.552000
367.150909;0.548000
367.698914;0.541000
368.239899;0.549000
368.788910;0.542000
369.330902;0.537000
369.867889;0.532000
370.399902;0.524000
370.923889;0.519000
371.442902;0.518000
371.960907;0.517000
372.477905;0.512000
372.989899;0.515000
373.504913;0.518000
374.022919;0.512000
374.534912;0.510000
375.044891;0.509000
375.553894;0.510000
376.063904;0.500000
376.563904;0.502000
377.065918;0.500000
377.565918;0.493000
378.058899;0.490000
378.548889;0.486000
379.034912;0.487000
379.521912;0.483000
380.004913;0.481000
380.485901;0.479000
380.964905;0.481000
381.445892;0.479000
381.924896;0.476000
382.400909;0.476000
382.876892;0.475000
383.351898;0.481000
383.832916;0.475000
384.307892;0.478000
384.785889;0.478000
385.263916;0.490000
385.753906;0.502000
386.255890;0.537000
386.792908;0.536000
387.328918;0.514000
387.842896;0.518000
388.360901;0.511000
388.871918;0.516000
389.387909;0.508000
389.895905;0.508000
390.403900;0.513000
390.916901;0.510000
391.426910;0.500000
391.926910;0.500000
392.426910;0.497000
392.923889;0.502000
393.425903;0.496000
393.921906;0.489000
394.410889;0.487000
394.897919;0.480000
395.377899;0.478000
395.855896;0.471000
396.326904;0.463000
396.789917;0.466000
397.255890;0.460000
397.715912;0.453000
398.168915;0.454000
398.622894;0.446000
399.068909;0.453000
399.521912;0.447000
399.968903;0.449000
400.417908;0.446000
400.863892;0.447000
401.310913;0.449000
401.759918;0.445000
402.204895;0.450000
402.654907;0.445000
403.099915;0.443000
403.542908;0.445000
403.987915;0.444000
404.431915;0.444000
404.875916;0.441000
405.316895;0.440000
405.756897;0.434000
406.190918;0.441000
406.631897;0.431000
407.062897;0.429000
407.491913;0.435000
407.926910;0.424000
408.350891;0.427000
408.777893;0.425000
409.202911;0.426000
409.628906;0.422000
410.050903;0.416000
410.466919;0.417000
410.883911;0.416000
411.299896;0.414000
411.713898;0.413000
412.126892;0.419000
412.545898;0.416000
412.961914;0.416000
413.377899;0.418000
413.795898;0.421000
414.216919;0.423000
414.639893;0.432000
415.071899;0.433000
415.504913;0.368000
415.872894;0.515000
416.387909;0.443000
416.830902;0.439000
417.269897;0.442000
417.711914;0.444000
418.155914;0.445000
418.600891;0.447000
419.047913;0.443000
419.490906;0.440000
419.930908;0.444000
420.374908;0.443000
420.817902;0.439000
421.256897;0.436000
421.692902;0.434000
422.126892;0.434000
422.560913;0.436000
422.996918;0.436000
423.432892;0.436000
423.868896;0.434000
424.302917;0.433000
424.735901;0.429000
425.164917;0.432000
425.596893;0.430000
426.026917;0.427000
426.453918;0.427000
426.880890;0.427000
427.307892;0.431000
427.738892;0.429000
428.167908;0.427000
428.594910;0.432000
429.026917;0.434000
429.460907;0.440000
429.900909;0.438000
430.338898;0.435000
430.773895;0.439000
431.212891;0.436000
431.648895;0.442000
432.090912;0.442000
432.532898;0.438000
432.970917;0.435000
433.405914;0.438000
433.843903;0.441000
434.284912;0.442000
434.726898;0.437000
435.163910;0.437000
435.600891;0.443000
436.043915;0.443000
436.486908;0.438000
436.924896;0.437000
437.361908;0.437000
437.798889;0.439000
438.237915;0.441000
438.678894;0.434000
439.112915;0.429000
439.541901;0.427000
439.968903;0.430000
440.398895;0.426000
440.824890;0.427000
441.251892;0.422000
441.673889;0.430000
442.103912;0.424000
442.527893;0.422000
442.949890;0.423000
443.372894;0.428000
443.800903;0.433000
444.233917;0.435000
444.668915;0.432000
445.100891;0.438000
445.538910;0.439000
445.977905;0.438000
446.415894;0.437000
446.852905;0.443000
447.295898;0.439000
447.734894;0.443000
448.177917;0.438000
448.615906;0.435000
449.050903;0.434000
449.484894;0.436000
449.920898;0.426000
450.346893;0.428000
450.774902;0.423000
451.197906;0.426000
451.623901;0.424000
452.047913;0.419000
452.466919;0.416000
452.882904;0.417000
453.299896;0.416000
453.715912;0.414000
454.129913;0.412000
454.541901;0.408000
454.949890;0.413000
455.362915;0.413000
455.775909;0.415000
456.190918;0.412000
456.602905;0.417000
457.019897;0.420000
457.439911;0.432000
457.871918;0.448000
458.319916;0.449000
458.768890;0.452000
459.220917;0.455000
459.675903;0.448000
460.123901;0.448000
460.571899;0.451000
461.022919;0.452000
461.474915;0.447000
461.921906;0.446000
462.367889;0.436000
462.803894;0.435000
463.238892;0.438000
463.676910;0.426000
464.102905;0.428000
464.530914;0.426000
464.956909;0.422000
465.378906;0.419000
465.797913;0.423000
466.220917;0.422000
466.642914;0.413000
467.055908;0.412000
467.467896;0.416000
467.883911;0.415000
468.298889;0.408000
468.706909;0.410000
469.116913;0.408000
469.524902;0.406000
469.930908;0.400000
470.330902;0.403000
470.733917;0.402000
471.135895;0.400000
471.535919;0.403000
471.938904;0.397000
472.335907;0.398000
472.733917;0.404000
473.137909;0.407000
473.544891;0.396000
473.940918;0.402000
474.342896;0.401000
474.743896;0.404000
475.147919;0.406000
475.553894;0.403000
475.956909;0.410000
476.366913;0.409000
476.775909;0.405000
477.180908;0.403000
477.583893;0.407000
477.990906;0.406000
478.396912;0.402000
478.798889;0.399000
479.197906;0.401000
479.598907;0.401000
479.999908;0.396000
480.395905;0.397000
480.792908;0.400000
481.192902;0.397000
481.589905;0.396000
481.985901;0.394000
482.379913;0.392000
482.771912;0.395000
483.166901;0.395000
483.561890;0.392000
483.953918;0.391000
484.344910;0.396000
484.740906;0.399000
485.139893;0.400000
485.539917;0.398000
485.937897;0.401000
486.338898;0.403000
486.741913;0.405000
487.146912;0.405000
487.551910;0.404000
487.955902;0.405000
488.360901;0.406000
488.766907;0.407000
489.173889;0.407000
489.580902;0.403000
489.983917;0.403000
490.386902;0.405000
490.791901;0.407000
491.198914;0.406000
491.604889;0.410000
492.014893;0.405000
492.419891;0.411000
492.830902;0.410000
493.240906;0.410000
493.650909;0.411000
494.061890;0.412000
494.473907;0.414000
494.887909;0.413000
495.300903;0.414000
495.714905;0.415000
496.129913;0.413000
496.542908;0.406000
496.948914;0.408000
497.356903;0.410000
497.766907;0.407000
498.173889;0.407000
498.580902;0.408000
498.988892;0.409000
499.397919;0.405000
499.802917;0.409000
500.211914;0.413000
500.624908;0.408000
501.032898;0.411000
501.443909;0.409000
501.852905;0.413000
502.265900;0.416000
502.681915;0.416000
503.097900;0.413000
503.510895;0.416000
503.926910;0.418000
504.344910;0.416000
504.760895;0.414000
505.174896;0.415000
505.589905;0.411000
506.000916;0.411000
506.411896;0.409000
506.820892;0.411000
507.231903;0.408000
507.639893;0.408000
508.047913;0.404000
508.451904;0.408000
508.859894;0.403000
509.262909;0.406000
509.668915;0.406000
510.074890;0.405000
510.479889;0.415000
510.894897;0.417000
511.311890;0.421000
511.732910;0.427000
512.159912;0.436000
512.595886;0.437000
513.032898;0.449000
513.481934;0.455000
513.936890;0.451000
514.387878;0.443000
514.830933;0.439000
515.269897;0.432000
515.701904;0.432000
516.133911;0.431000
516.564880;0.431000
516.995911;0.426000
517.421875;0.421000
517.842896;0.422000
518.264893;0.422000
518.686890;0.420000
519.106934;0.420000
519.526917;0.421000
519.947876;0.414000
520.361877;0.419000
520.780884;0.424000
521.204895;0.422000
521.626892;0.422000
522.048889;0.424000
522.472900;0.432000
522.904907;0.437000
523.341919;0.436000
523.777893;0.434000
524.211914;0.439000
524.650879;0.442000
525.092896;0.441000
525.533875;0.438000
525.971924;0.434000
526.405884;0.436000
526.841919;0.432000
527.273926;0.340000
527.613892;0.526000
528.139893;0.435000
528.574890;0.434000
529.008911;0.428000
529.436890;0.426000
529.862915;0.427000
530.289917;0.421000
530.710876;0.418000
531.128906;0.417000
531.545898;0.416000
531.961914;0.416000
532.377930;0.414000
532.791931;0.412000
533.203918;0.416000
533.619934;0.415000
534.034912;0.412000
534.446899;0.413000
534.859924;0.412000
535.271912;0.415000
535.686890;0.414000
536.100891;0.409000
536.509888;0.410000
536.919922;0.408000
537.327881;0.411000
537.738892;0.407000
538.145874;0.407000
538.552917;0.411000
538.963928;0.405000
539.368896;0.409000
539.777893;0.406000
540.183899;0.317000
540.500916;0.483000
540.983887;0.406000
541.389893;0.396000
541.785889;0.398000
542.183899;0.398000
542.581909;0.398000
542.979919;0.398000
543.377930;0.392000
543.769897;0.396000
544.165894;0.394000
544.559875;0.390000
544.949890;0.392000
545.341919;0.390000
545.731934;0.390000
546.121887;0.385000
546.506897;0.385000
546.891907;0.382000
547.273926;0.388000
547.661926;0.383000
548.044922;0.385000
548.429932;0.388000
548.817932;0.390000
549.207886;0.391000
549.598877;0.395000
549.993896;0.396000
550.389893;0.392000
550.781921;0.396000
551.177917;0.391000
551.568909;0.390000
551.958923;0.396000
552.354919;0.391000
552.745911;0.394000
553.139893;0.392000
553.531921;0.393000
553.924927;0.394000
554.318909;0.392000
554.710876;0.391000
555.101929;0.387000
555.488892;0.390000
555.878906;0.392000
556.270874;0.391000
556.661926;0.389000
557.050903;0.383000
557.433899;0.386000
557.819885;0.392000
558.211914;0.387000
558.598877;0.382000
558.980896;0.382000
559.362915;0.383000
559.745911;0.388000
560.133911;0.382000
560.515930;0.382000
560.897888;0.387000
561.284912;0.386000
561.670898;0.382000
562.052917;0.386000
562.438904;0.386000
562.824890;0.388000
563.212891;0.389000
563.601929;0.387000
563.988892;0.388000
564.376892;0.390000
564.766907;0.389000
565.155884;0.391000
565.546875;0.389000
565.935913;0.389000
566.324890;0.391000
566.715881;0.389000
567.104919;0.386000
567.490906;0.388000
567.878906;0.390000
568.268921;0.387000
568.655884;0.386000
569.041931;0.388000
569.429932;0.385000
569.814880;0.387000
570.201904;0.382000
570.583923;0.387000
570.970886;0.386000
571.356934;0.384000
571.740906;0.383000
572.123901;0.388000
572.511902;0.388000
572.899902;0.387000
573.286926;0.395000
573.681885;0.396000
574.077881;0.398000
574.475891;0.406000
574.881897;0.403000
575.284912;0.410000
575.694885;0.409000
576.103882;0.411000
576.514893;0.408000
576.922913;0.413000
577.335876;0.412000
577.747925;0.405000
578.152893;0.409000
578.561890;0.411000
578.972900;0.409000
579.381897;0.407000
579.788879;0.410000
580.198914;0.411000
580.609924;0.406000
581.015930;0.816000
581.831909;0.412000
582.243896;0.412000
582.655884;0.409000
583.064880;0.416000
583.480896;0.416000
583.896912;0.421000
584.317932;0.416000
584.733887;0.418000
585.151917;0.417000
585.568909;0.416000
585.984924;0.416000
586.400879;0.409000
586.809875;0.414000
587.223877;0.411000
587.634888;0.411000
588.045898;0.412000
588.457886;0.412000
588.869934;0.416000
589.285889;0.414000
589.699890;0.416000
590.115906;0.419000
590.534912;0.417000
590.951904;0.422000
591.373901;0.418000
591.791931;0.421000
592.212891;0.423000
592.635925;0.419000
593.054932;0.422000
593.476929;0.420000
593.896912;0.420000
594.316895;0.417000
594.733887;0.418000
595.151917;0.416000
595.567932;0.410000
595.977905;0.409000
596.386902;0.410000
596.796875;0.408000
597.204895;0.410000
597.614929;0.409000
598.023926;0.414000
598.437927;0.413000
598.850891;0.415000
599.265930;0.410000
599.675903;0.411000
600.086914;0.414000
600.500916;0.412000
600.912903;0.409000
601.321899;0.406000
601.727905;0.409000
602.136902;0.404000
602.540894;0.404000
602.944885;0.404000
603.348877;0.402000
603.750916;0.402000
604.152893;0.400000
604.552917;0.399000
604.951904;0.401000
605.352905;0.399000
605.751892;0.395000
606.146912;0.396000
606.542908;0.399000
606.941895;0.398000
607.339905;0.394000
607.733887;0.395000
608.128906;0.256000
608.384888;0.545000
608.929932;0.399000
609.328918;0.400000
609.728882;0.401000
610.129883;0.405000
610.534912;0.402000
610.936890;0.399000
611.335876;0.404000
611.739929;0.406000
612.145874;0.403000
612.548889;0.393000
612.941895;0.400000
613.341919;0.396000
613.737915;0.397000
614.134888;0.394000
614.528931;0.394000
614.922913;0.393000
615.315918;0.388000
615.703918;0.391000
616.094910;0.390000
616.484924;0.390000
616.874878;0.388000
617.262878;0.388000
617.650879;0.383000
618.033875;0.383000
618.416931;0.384000
618.800903;0.385000
619.185913;0.383000
619.568909;0.379000
619.947876;0.379000
620.326904;0.381000
620.707886;0.379000
621.086914;0.380000
621.466919;0.375000
621.841919;0.376000
622.217896;0.381000
622.598877;0.375000
622.973877;0.376000
623.349915;0.372000
623.721924;0.376000
624.097900;0.378000
624.475891;0.377000
624.852905;0.376000
625.228882;0.376000
625.604919;0.378000
625.982910;0.383000
626.365906;0.385000
626.750916;0.390000
627.140930;0.393000
627.533875;0.395000
627.928894;0.395000
628.323914;0.400000
628.723877;0.400000
629.123901;0.402000
629.525879;0.400000
629.925903;0.401000
630.326904;0.403000
630.729919;0.401000
631.130920;0.405000
631.535889;0.404000
631.939880;0.403000
632.342896;0.401000
632.743896;0.406000
633.149902;0.403000
633.552917;0.404000
633.956909;0.398000
634.354919;0.400000
634.754883;0.401000
635.155884;0.401000
635.556885;0.398000
635.954895;0.397000
636.351929;0.397000
636.748901;0.398000
637.146912;0.399000
637.545898;0.399000
637.944885;0.403000
638.347900;0.404000
638.751892;0.403000
639.154907;0.406000
639.560913;0.406000
639.966919;0.402000
640.368896;0.405000
640.773926;0.407000
641.180908;0.407000
641.587891;0.402000
641.989929;0.409000
642.398926;0.407000
642.805908;0.410000
643.215881;0.414000
643.629883;0.415000
644.044922;0.416000
644.460876;0.416000
644.876892;0.412000
645.288879;0.415000
645.703918;0.415000
646.118896;0.415000
646.533875;0.414000
646.947876;0.418000
647.365906;0.420000
647.785889;0.420000
648.205933;0.427000
648.632935;0.429000
649.061890;0.434000
649.495911;0.440000
649.935913;0.438000
650.373901;0.438000
650.811890;0.436000
651.247925;0.431000
651.678894;0.433000
652.111877;0.431000
652.542908;0.435000
652.977905;0.432000
653.409912;0.428000
653.837891;0.426000
654.263916;0.434000
654.697876;0.434000
655.131897;0.434000
655.565918;0.438000
656.003906;0.440000
656.443909;0.440000
656.883911;0.437000
657.320923;0.437000
657.757935;0.436000
658.193909;0.437000
658.630920;0.436000
659.066895;0.435000
659.501892;0.434000
659.935913;0.432000
660.367920;0.434000
660.801880;0.436000
661.237915;0.441000
661.678894;0.447000
662.125916;0.451000
662.576904;0.445000
663.021912;0.446000
663.467896;0.449000
663.916931;0.460000
664.376892;0.472000
664.848877;0.490000
665.338928;0.497000
665.835876;0.484000
666.319885;0.482000
666.801880;0.503000
667.304932;0.535000
667.839905;0.565000
668.404907;0.563000
668.967896;0.512000
669.479919;0.506000
669.985901;0.505000
670.490906;0.535000
671.025879;0.537000
671.562927;0.536000
672.098877;0.504000
672.602905;0.499000
673.101929;0.497000
673.598877;0.519000
674.117920;0.526000
674.643921;0.540000
675.183899;0.541000
675.724915;0.513000
676.237915;0.515000
676.752930;0.560000
677.312927;0.584000
677.896912;0.644000
678.540894;0.618000
679.158875;0.548000
679.706909;0.567000
680.273926;0.570000
680.843933;0.583000
681.426880;0.581000
682.007935;0.534000
682.541931;0.533000
683.074890;0.547000
683.621887;0.567000
684.188904;0.586000
684.774902;0.585000
685.359924;0.544000
685.903931;0.571000
686.474915;0.583000
687.057922;0.633000
687.690918;0.648000
688.338928;0.569000
688.907898;0.594000
689.501892;0.591000
690.092896;0.606000
690.698914;0.595000
691.293884;0.551000
691.844910;0.550000
692.394897;0.577000
692.971924;0.580000
693.551880;0.585000
694.136902;0.570000
694.706909;0.521000
695.227905;0.528000
695.755920;0.534000
696.289917;0.545000
696.834900;0.550000
697.384888;0.556000
697.940918;0.522000
698.462891;0.544000
699.006897;0.550000
699.556885;0.562000
700.118896;0.577000
700.695923;0.557000
701.252930;0.565000
701.817932;0.572000
702.389893;0.576000
702.965881;0.555000
703.520874;0.572000
704.092896;0.573000
704.665894;0.594000
705.259888;0.571000
705.830933;0.589000
706.419922;0.592000
707.011902;0.586000
707.597900;0.554000
708.151917;0.556000
708.707886;0.576000
709.283875;0.578000
709.861877;0.560000
710.421875;0.559000
710.980896;0.582000
711.562927;0.594000
712.156921;0.609000
712.765930;0.595000
713.360901;0.598000
713.958923;0.613000
714.571899;0.645000
715.216919;0.633000
715.849915;0.592000
716.441895;0.609000
717.050903;0.607000
717.657898;0.616000
718.273926;0.625000
718.898926;0.607000
719.505920;0.576000
720.081909;0.593000
720.674927;0.596000
721.270874;0.625000
721.895874;0.626000
722.521912;0.596000
723.117920;0.609000
723.726929;0.616000
724.342896;0.648000
724.990906;0.647000
725.637878;0.601000
726.238892;0.592000
726.830933;0.595000
727.425903;0.610000
728.035889;0.621000
728.656921;0.600000
729.256897;0.587000
729.843933;0.583000
730.426880;0.591000
731.017883;0.592000
731.609924;0.567000
732.176880;0.541000
732.717896;0.540000
733.257935;0.548000
733.805908;0.570000
734.375916;0.593000
734.968933;0.587000
735.555908;0.597000
736.152893;0.625000
736.777893;0.664000
737.441895;0.638000
738.079895;0.631000
738.710876;0.638000
739.348877;0.649000
739.997925;0.619000
740.616882;0.613000
741.229919;0.615000
741.844910;0.623000
742.467896;0.614000
743.081909;0.593000
743.674927;0.587000
744.261902;0.587000
744.848877;0.607000
745.455933;0.622000
746.077881;0.605000
746.682922;0.604000
747.286926;0.622000
747.908875;0.662000
748.570923;0.676000
749.246887;0.644000
749.890930;0.641000
750.531921;0.652000
751.183899;0.667000
751.850891;0.645000
752.495911;0.618000
753.113892;0.618000
753.731934;0.619000
754.350891;0.621000
754.971924;0.607000
755.578918;0.592000
756.170898;0.594000
756.764893;0.612000
757.376892;0.619000
757.995911;0.613000
758.608887;0.631000
759.239929;0.642000
759.881897;0.625000
760.506897;0.598000
761.104919;0.604000
761.708923;0.611000
762.319885;0.624000
762.943909;0.602000
763.545898;0.600000
764.145874;0.602000
764.747925;0.614000
765.361877;0.616000
765.977905;0.588000
766.565918;0.580000
767.145874;0.579000
767.724915;0.588000
768.312927;0.601000
768.913879;0.605000
769.518921;0.599000
770.117920;0.613000
770.730896;0.649000
771.379883;0.692000
772.071899;0.721000
772.792908;0.660000
773.452881;0.646000
774.098877;0.656000
774.754883;0.676000
775.430908;0.662000
776.092896;0.635000
776.727905;0.614000
777.341919;0.623000
777.964905;0.630000
778.594910;0.651000
779.245911;0.619000
779.864929;0.609000
780.473877;0.620000
781.093933;0.646000
781.739929;0.656000
782.395874;0.639000
783.034912;0.630000
783.664917;0.637000
784.301880;0.660000
784.961914;0.672000
785.633911;0.652000
786.285889;0.635000
786.920898;0.637000
787.557922;0.651000
788.208923;0.650000
788.858887;0.638000
789.496887;0.620000
790.116882;0.617000
790.733887;0.635000
791.368896;0.647000
792.015930;0.665000
792.680908;0.629000
793.309875;0.639000
793.948914;0.654000
794.602905;0.666000
795.268921;0.668000
795.936890;0.641000
796.577881;0.629000
797.206909;0.650000
797.856934;0.648000
798.504883;0.660000
799.164917;0.639000
799.803894;0.625000
800.428894;0.625000
801.053894;0.640000
801.693909;0.645000
802.338928;0.632000
802.970886;0.622000
803.592896;0.626000
804.218933;0.644000
804.862915;0.651000
805.513916;0.629000
806.142883;0.623000
806.765930;0.640000
807.405884;0.642000
808.047913;0.649000
808.696899;0.629000
809.325928;0.622000
809.947876;0.625000
810.572876;0.636000
811.208923;0.620000
811.828918;0.605000
812.433899;0.588000
813.021912;0.585000
813.606934;0.590000
814.196899;0.615000
814.811890;0.643000
815.454895;0.645000
816.099915;0.628000
816.727905;0.646000
817.373901;0.672000
818.045898;0.694000
818.739929;0.695000
819.434875;0.649000
820.083923;0.651000
820.734924;0.658000
821.392883;0.634000
822.026917;0.629000
822.655884;0.610000
823.265930;0.603000
823.868896;0.598000
824.466919;0.604000
825.070923;0.615000
825.685913;0.604000
826.289917;0.597000
826.886902;0.613000
827.499878;0.641000
828.140930;0.663000
828.803894;0.672000
829.475891;0.650000
830.125916;0.672000
830.797913;0.686000
831.483887;0.685000
832.168884;0.646000
832.814880;0.641000
833.455933;0.638000
834.093933;0.646000
834.739929;0.616000
835.355896;0.605000
835.960876;0.601000
836.561890;0.600000
837.161926;0.607000
837.768921;0.610000
838.378906;0.606000
838.984924;0.611000
839.595886;0.625000
840.220886;0.616000
840.836914;0.610000
841.446899;0.593000
842.039917;0.594000
842.633911;0.613000
843.246887;0.620000
843.866882;0.628000
844.494934;0.599000
845.093933;0.600000
845.693909;0.605000
846.298889;0.607000
846.905884;0.607000
847.512878;0.596000
848.108887;0.591000
848.699890;0.596000
849.295898;0.618000
849.913879;0.632000
850.545898;0.626000
851.171875;0.627000
851.798889;0.657000
852.455933;0.664000
853.119934;0.668000
853.787903;0.636000
854.423889;0.643000
855.066895;0.653000
855.719910;0.628000
856.347900;0.619000
856.966919;0.606000
857.572876;0.607000
858.179932;0.625000
858.804932;0.632000
859.436890;0.611000
860.047913;0.612000
860.659912;0.619000
861.278931;0.634000
861.912903;0.648000
862.560913;0.641000
863.201904;0.629000
863.830933;0.636000
864.466919;0.651000
865.117920;0.651000
865.768921;0.621000
866.389893;0.612000
867.001892;0.609000
867.610901;0.608000
868.218933;0.625000
868.843933;0.613000
869.456909;0.609000
870.065918;0.615000
870.680908;0.638000
871.318909;0.656000
871.974915;0.667000
872.641907;0.650000
873.291931;0.654000
873.945923;0.679000
874.624878;0.674000
875.298889;0.645000
875.943909;0.633000
876.576904;0.635000
877.211914;0.627000
877.838928;0.624000
878.462891;0.613000
879.075928;0.599000
879.674927;0.598000
880.272888;0.603000
880.875916;0.636000
881.511902;0.648000
882.159912;0.656000
882.815918;0.636000
883.451904;0.639000
884.090881;0.657000
884.747925;0.668000
885.415894;0.667000
886.082886;0.627000
886.709900;0.623000
887.332886;0.627000
887.959900;0.623000
888.582886;0.624000
889.206909;0.613000
889.819885;0.604000
890.423889;0.605000
891.028931;0.607000
891.635925;0.633000
892.268921;0.651000
892.919922;0.665000
893.584900;0.644000
894.228882;0.634000
894.862915;0.639000
895.501892;0.651000
896.152893;0.652000
896.804932;0.627000
897.431885;0.622000
898.053894;0.627000
898.680908;0.644000
899.324890;0.645000
899.969910;0.641000
900.610901;0.628000
901.238892;0.623000
901.861877;0.638000
902.499878;0.637000
903.136902;0.644000
903.780884;0.627000
904.407898;0.620000
905.027893;0.625000
905.652893;0.636000
906.288879;0.637000
906.925903;0.629000
907.554932;0.623000
908.177917;0.626000
908.803894;0.627000
909.430908;0.651000
910.081909;0.646000
910.727905;0.631000
911.358887;0.633000
911.991882;0.653000
912.644897;0.657000
913.301880;0.638000
913.939880;0.634000
914.573914;0.633000
915.206909;0.649000
915.855896;0.648000
916.503906;0.649000
917.152893;0.626000
917.778931;0.626000
918.404907;0.642000
919.046875;0.635000
919.681885;0.625000
920.306885;0.621000
920.927917;0.618000
921.545898;0.620000
922.165894;0.633000
922.798889;0.628000
923.426880;0.626000
924.052917;0.636000
924.688904;0.664000
925.352905;0.669000
926.021912;0.678000
926.699890;0.647000
927.346924;0.651000
927.997925;0.658000
928.655884;0.649000
929.304932;0.627000
929.931885;0.620000
930.551880;0.620000
931.171875;0.617000
931.788879;0.617000
932.405884;0.614000
933.019897;0.608000
933.627930;0.611000
934.238892;0.611000
934.849915;0.624000
935.473877;0.644000
936.117920;0.619000
936.736877;0.615000
937.351929;0.619000
937.970886;0.627000
938.597900;0.654000
939.251892;0.651000
939.902893;0.627000
940.529907;0.623000
941.152893;0.627000
941.779907;0.629000
942.408875;0.631000
943.039917;0.621000
943.660889;0.610000
944.270874;0.611000
944.881897;0.617000
945.498901;0.637000
946.135925;0.643000
946.778931;0.625000
947.403931;0.629000
948.032898;0.640000
948.672913;0.658000
949.330933;0.670000
950.000916;0.642000
950.642883;0.633000
951.275879;0.631000
951.906921;0.631000
952.537903;0.625000
953.162903;0.620000
953.782898;0.610000
954.392883;0.607000
954.999878;0.603000
955.602905;0.596000
956.198914;0.599000
956.797913;0.623000
957.420898;0.612000
958.032898;0.613000
958.645874;0.622000
959.267883;0.639000
959.906921;0.643000
960.549927;0.625000
961.174927;0.615000
961.789917;0.611000
962.400879;0.610000
963.010925;0.613000
963.623901;0.618000
964.241882;0.615000
964.856934;0.613000
965.469910;0.627000
966.096924;0.663000
966.759888;0.668000
967.427917;0.668000
968.095886;0.653000
968.748901;0.650000
969.398926;0.644000
970.042908;0.667000
970.709900;0.629000
971.338928;0.620000
971.958923;0.615000
972.573914;0.615000
973.188904;0.616000
973.804932;0.619000
974.423889;0.611000
975.034912;0.607000
975.641907;0.615000
976.256897;0.635000
976.891907;0.648000
977.539917;0.641000
978.180908;0.647000
978.827881;0.688000
979.515930;0.687000
980.202881;0.666000
980.868896;0.655000
981.523926;0.663000
982.186890;0.687000
982.873901;0.654000
983.527893;0.642000
984.169922;0.641000
984.810913;0.652000
985.462891;0.629000
986.091919;0.628000
986.719910;0.614000
987.333923;0.609000
987.942932;0.615000
988.557922;0.643000
989.200928;0.651000
989.851929;0.674000
990.525879;0.662000
991.187927;0.698000
991.885925;0.699000
992.584900;0.712000
993.296875;0.679000
993.975891;0.657000
994.632935;0.654000
995.286926;0.647000
995.933899;0.637000
996.570923;0.617000
997.187927;0.603000
997.790894;0.602000
998.392883;0.603000
998.995911;0.607000
999.602905;0.608000
1000.210876;0.616000
1000.826904;0.631000
1001.457886;0.668000
1002.125916;0.690000
1002.815918;0.687000
1003.502930;0.650000
1004.152893;0.677000
1004.829895;0.665000
1005.494934;0.665000
1006.159912;0.630000
1006.789917;0.627000
1007.416931;0.625000
1008.041931;0.621000
1008.662903;0.614000
1009.276917;0.603000
1009.879883;0.606000
1010.485901;0.614000
1011.099915;0.649000
1011.748901;0.656000
1012.404907;0.649000
1013.053894;0.687000
1013.740906;0.694000
1014.434875;0.707000
1015.141907;0.676000
1015.817932;0.654000
1016.471924;0.649000
1017.120911;0.642000
1017.762878;0.652000
1018.414917;0.621000
1019.035889;0.614000
1019.649902;0.613000
1020.262878;0.610000
1020.872925;0.608000
1021.480896;0.606000
1022.086914;0.597000
1022.683899;0.596000
1023.279907;0.603000
1023.882935;0.614000
1024.496948;0.644000
1025.140869;0.642000
1025.782959;0.642000
1026.424927;0.653000
1027.077881;0.666000
1027.743896;0.664000
1028.407959;0.633000
1029.040894;0.620000
1029.660889;0.618000
1030.278931;0.613000
1030.891846;0.614000
1031.505859;0.611000
1032.116943;0.602000
1032.718872;0.601000
1033.319946;0.602000
1033.921875;0.610000
1034.531860;0.619000
1035.150879;0.614000
1035.764893;0.613000
1036.377930;0.622000
1036.999878;0.641000
1037.640869;0.643000
1038.283936;0.619000
1038.902954;0.614000
1039.516846;0.619000
1040.135864;0.620000
1040.755859;0.616000
1041.371948;0.610000
1041.981934;0.596000
1042.577881;0.588000
1043.165894;0.592000
1043.757935;0.593000
1044.350952;0.599000
1044.949951;0.611000
1045.560913;0.615000
1046.175903;0.620000
1046.795898;0.638000
1047.433960;0.664000
1048.097900;0.663000
1048.760864;0.641000
1049.401855;0.631000
1050.032959;0.628000
1050.660889;0.627000
1051.287964;0.631000
1051.918945;0.632000
1052.550903;0.614000
1053.164917;0.610000
1053.774902;0.617000
1054.391846;0.623000
1055.014893;0.625000
1055.639893;0.618000
1056.257935;0.617000
1056.874878;0.630000
1057.504883;0.660000
1058.164917;0.660000
1058.824951;0.644000
1059.468872;0.638000
1060.106934;0.644000
1060.750854;0.654000
1061.404907;0.625000
1062.029907;0.617000
1062.646851;0.613000
1063.259888;0.610000
1063.869873;0.604000
1064.473877;0.604000
1065.077881;0.602000
1065.679932;0.601000
1066.280884;0.619000
1066.899902;0.661000
1067.560913;0.690000
1068.250854;0.721000
1068.971924;0.710000
1069.681885;0.731000
1070.412964;0.718000
1071.130859;0.685000
1071.815918;0.658000
1072.473877;0.643000
1073.116943;0.635000
1073.751953;0.630000
1074.381958;0.625000
1075.006958;0.610000
1075.616943;0.606000
1076.222900;0.607000
1076.829956;0.608000
1077.437866;0.612000
1078.049927;0.609000
1078.658936;0.607000
1079.265869;0.617000
1079.882935;0.627000
1080.509888;0.661000
1081.170898;0.640000
1081.810913;0.632000
1082.442871;0.639000
1083.081909;0.640000
1083.721924;0.640000
1084.361938;0.625000
1084.986938;0.630000
1085.616943;0.631000
1086.247925;0.634000
1086.881958;0.636000
1087.517944;0.629000
1088.146851;0.633000
1088.779907;0.631000
1089.410889;0.635000
1090.045898;0.625000
1090.670898;0.631000
1091.301880;0.651000
1091.952881;0.660000
1092.612915;0.642000
1093.254883;0.638000
1093.892944;0.641000
1094.533936;0.641000
1095.174927;0.639000
1095.813965;0.627000
1096.440918;0.627000
1097.067871;0.628000
1097.695923;0.634000
1098.329956;0.641000
1098.970947;0.628000
1099.598877;0.634000
1100.232910;0.642000
1100.874878;0.665000
1101.539917;0.639000
1102.178955;0.634000
1102.812866;0.640000
1103.452881;0.642000
1104.094849;0.646000
1104.740845;0.640000
1105.380859;0.638000
1106.018921;0.644000
1106.662964;0.648000
1107.310913;0.646000
1107.956909;0.637000
1108.593872;0.647000
1109.240845;0.650000
1109.890869;0.650000
1110.540894;0.635000
1111.175903;0.625000
1111.800903;0.621000
1112.421875;0.618000
1113.039917;0.620000
1113.659912;0.618000
1114.277954;0.619000
1114.896851;0.615000
1115.511963;0.608000
1116.119873;0.609000
1116.728882;0.621000
1117.349854;0.623000
1117.972900;0.611000
1118.583862;0.607000
1119.190918;0.602000
1119.792847;0.600000
1120.392944;0.594000
1120.986938;0.583000
1121.569946;0.581000
1122.150879;0.580000
1122.730957;0.578000
1123.308960;0.580000
1123.888916;0.582000
1124.470947;0.577000
1125.047852;0.583000
1125.630859;0.586000
1126.216919;0.598000
1126.814941;0.619000
1127.433960;0.618000
1128.051880;0.623000
1128.674927;0.633000
1129.307861;0.646000
1129.953857;0.657000
1130.610962;0.638000
1131.248901;0.626000
1131.874878;0.621000
1132.495850;0.615000
1133.110962;0.609000
1133.719849;0.594000
1134.313965;0.587000
1134.900879;0.587000
1135.487915;0.580000
1136.067871;0.573000
1136.640869;0.572000
1137.212891;0.574000
1137.786865;0.589000
1138.375854;0.642000
1139.017944;0.733000
1139.750854;0.799000
1140.549927;0.790000
1141.339844;0.817000
1142.156860;0.789000
1142.945923;0.711000
1143.656860;0.688000
1144.344849;0.685000
1145.029907;0.675000
1145.704956;0.659000
1146.363892;0.637000
1147.000854;0.623000
1147.623901;0.616000
1148.239868;0.605000
1148.844849;0.597000
1149.441895;0.585000
1150.026855;0.581000
1150.607910;0.582000
1151.189941;0.579000
1151.768921;0.580000
1152.348877;0.583000
1152.931885;0.576000
1153.507935;0.575000
1154.082886;0.579000
1154.661865;0.577000
1155.238892;0.578000
1155.816895;0.581000
1156.397949;0.574000
1156.971924;0.572000
1157.543945;0.576000
1158.119873;0.581000
1158.700928;0.593000
1159.293945;0.588000
1159.881958;0.592000
1160.473877;0.594000
1161.067871;0.599000
1161.666870;0.608000
1162.274902;0.611000
1162.885864;0.600000
1163.485962;0.593000
1164.078857;0.594000
1164.672852;0.591000
1165.263916;0.585000
1165.848877;0.577000
1166.425903;0.576000
1167.001953;0.582000
1167.583862;0.584000
1168.167847;0.587000
1168.754883;0.591000
1169.345947;0.596000
1169.941895;0.596000
1170.537964;0.590000
1171.127930;0.591000
1171.718872;0.586000
1172.304932;0.584000
1172.888916;0.582000
1173.470947;0.579000
1174.049927;0.585000
1174.634888;0.590000
1175.224854;0.602000
1175.826904;0.625000
1176.451904;0.633000
1177.084961;0.648000
1177.732910;0.669000
1178.401855;0.673000
1179.074951;0.667000
1179.741943;0.642000
1180.383911;0.639000
1181.022949;0.631000
1181.653931;0.626000
1182.279907;0.619000
1182.898926;0.606000
1183.504883;0.604000
1184.108887;0.599000
1184.707886;0.600000
1185.307861;0.598000
1185.905884;0.595000
1186.500854;0.602000
1187.102905;0.609000
1187.711914;0.622000
1188.333862;0.637000
1188.970947;0.624000
1189.594849;0.628000
1190.222900;0.631000
1190.853882;0.631000
1191.484863;0.628000
1192.112915;0.614000
1192.726929;0.609000
1193.335938;0.609000
1193.944946;0.605000
1194.549927;0.601000
1195.150879;0.597000
1195.747925;0.591000
1196.338867;0.592000
1196.930908;0.587000
1197.517944;0.584000
1198.101929;0.590000
1198.691895;0.602000
1199.293945;0.605000
1199.898926;0.605000
1200.503906;0.611000
1201.114868;0.617000
1201.731934;0.624000
1202.355957;0.625000
1202.980957;0.611000
1203.591919;0.605000
1204.196899;0.600000
1204.796875;0.593000
1205.389893;0.589000
1205.978882;0.589000
1206.567871;0.589000
1207.156860;0.598000
1207.754883;0.621000
1208.375854;0.682000
1209.057861;0.781000
1209.838867;0.772000
1210.610962;0.791000
1211.401855;0.779000
1212.180908;0.753000
1212.933960;0.704000
1213.637939;0.676000
1214.313965;0.670000
1214.983887;0.658000
1215.641846;0.648000
1216.289917;0.625000
1216.914917;0.624000
1217.538940;0.624000
1218.162964;0.631000
1218.793945;0.634000
1219.427856;0.652000
1220.079956;0.641000
1220.720947;0.636000
1221.356934;0.640000
1221.996948;0.650000
1222.646851;0.644000
1223.290894;0.629000
1223.919922;0.621000
1224.540894;0.625000
1225.165894;0.640000
1225.805908;0.678000
1226.483887;0.691000
1227.174927;0.722000
1227.896851;0.715000
1228.611938;0.680000
1229.291870;0.670000
1229.961914;0.662000
1230.623901;0.653000
1231.276855;0.631000
1231.907959;0.620000
1232.527954;0.617000
1233.144897;0.613000
1233.757935;0.612000
1234.369873;0.606000
1234.975952;0.602000
1235.577881;0.615000
1236.192871;0.624000
1236.816895;0.644000
1237.460938;0.631000
1238.091919;0.606000
1238.697876;0.601000
1239.298950;0.603000
1239.901855;0.605000
1240.506958;0.604000
1241.110962;0.598000
1241.708862;0.603000
1242.311890;0.603000
1242.914917;0.600000
1243.514893;0.578000
1244.092896;0.580000
1244.672852;0.574000
1245.246948;0.565000
1245.811890;0.565000
1246.376953;0.559000
1246.935913;0.559000
1247.494873;0.560000
1248.054932;0.561000
1248.615845;0.577000
1249.192871;0.602000
1249.794922;0.664000
1250.458862;0.691000
1251.149902;0.644000
1251.793945;0.625000
1252.418945;0.626000
1253.044922;0.634000
1253.678955;0.622000
1254.300903;0.606000
1254.906860;0.598000
1255.504883;0.582000
1256.086914;0.578000
1256.664917;0.569000
1257.233887;0.563000
1257.796875;0.560000
1258.356934;0.562000
1258.918945;0.564000
1259.482910;0.566000
1260.048950;0.570000
1260.618896;0.570000
1261.188965;0.570000
1261.758911;0.571000
1262.329956;0.578000
1262.907959;0.588000
1263.495850;0.604000
1264.099854;0.630000
1264.729858;0.640000
1265.369873;0.646000
1266.015869;0.642000
1266.657959;0.641000
1267.298950;0.640000
1267.938965;0.645000
1268.583862;0.654000
1269.237915;0.670000
1269.907959;0.657000
1270.564941;0.641000
1271.205933;0.644000
1271.849854;0.638000
1272.487915;0.642000
1273.129883;0.645000
1273.774902;0.637000
1274.411865;0.633000
1275.044922;0.637000
1275.681885;0.650000
1276.331909;0.693000
1277.024902;0.708000
1277.732910;0.705000
1278.437866;0.669000
1279.106934;0.665000
1279.771851;0.658000
1280.429932;0.655000
1281.084961;0.643000
1281.727905;0.634000
1282.361938;0.630000
1282.991943;0.630000
1283.621948;0.630000
1284.251953;0.643000
1284.894897;0.660000
1285.554932;0.669000
1286.223877;0.682000
1286.905884;0.695000
1287.600952;0.669000
1288.269897;0.665000
1288.934937;0.668000
1289.602905;0.667000
1290.269897;0.666000
1290.935913;0.655000
1291.590942;0.638000
1292.228882;0.638000
1292.866943;0.632000
1293.498901;0.636000
1294.134888;0.644000
1294.778931;0.640000
1295.418945;0.647000
1296.065918;0.659000
1296.724854;0.686000
1297.410889;0.705000
1298.115845;0.721000
1298.836914;0.714000
1299.550903;0.701000
1300.251953;0.654000
1300.905884;0.634000
1301.539917;0.618000
1302.157959;0.606000
1302.763916;0.603000
1303.366943;0.605000
1303.971924;0.612000
1304.583862;0.626000
1305.209961;0.650000
1305.859863;0.675000
1306.534912;0.707000
1307.241943;0.718000
1307.959961;0.685000
1308.644897;0.674000
1309.318848;0.662000
1309.980957;0.661000
1310.641846;0.656000
1311.297852;0.643000
1311.940918;0.635000
1312.575928;0.633000
1313.208862;0.635000
1313.843872;0.644000
1314.487915;0.658000
1315.145874;0.666000
1315.811890;0.671000
1316.482910;0.683000
1317.165894;0.676000
1317.841919;0.667000
1318.508911;0.678000
1319.186890;0.670000
1319.856934;0.666000
1320.522949;0.643000
1321.165894;0.637000
1321.802856;0.633000
1322.435913;0.632000
1323.067871;0.627000
1323.694946;0.626000
1324.320923;0.625000
1324.945923;0.633000
1325.578857;0.643000
1326.221924;0.665000
1326.886963;0.689000
1327.575928;0.703000
1328.278931;0.715000
1328.993896;0.704000
1329.697876;0.711000
1330.408936;0.694000
1331.102905;0.673000
1331.775879;0.656000
1332.431885;0.649000
1333.080933;0.647000
1333.727905;0.650000
1334.377930;0.652000
1335.029907;0.647000
1335.676880;0.662000
1336.338867;0.680000
1337.018921;0.692000
1337.710938;0.696000
1338.406860;0.667000
1339.073853;0.668000
1339.741943;0.666000
1340.407959;0.659000
1341.066895;0.648000
1341.714844;0.633000
1342.347900;0.627000
1342.974854;0.621000
1343.595947;0.615000
1344.210938;0.610000
1344.820923;0.607000
1345.427856;0.605000
1346.032959;0.613000
1346.645874;0.616000
1347.261963;0.624000
1347.885864;0.633000
1348.518921;0.648000
1349.166870;0.668000
1349.834961;0.693000
1350.527954;0.709000
1351.236938;0.699000
1351.935913;0.681000
1352.616943;0.672000
1353.288940;0.664000
1353.952881;0.654000
1354.606934;0.640000
1355.246948;0.627000
1355.873901;0.625000
1356.498901;0.625000
1357.123901;0.631000
1357.754883;0.650000
1358.404907;0.666000
1359.070923;0.679000
1359.749878;0.700000
1360.449951;0.717000
1361.166870;0.737000
1361.903931;0.723000
1362.626953;0.717000
1363.343872;0.703000
1364.046875;0.689000
1364.735962;0.680000
1365.415894;0.662000
1366.077881;0.657000
1366.734863;0.656000
1367.390869;0.662000
1368.052856;0.685000
1368.737915;0.692000
1369.429932;0.695000
1370.124878;0.708000
1370.832886;0.690000
1371.522949;0.670000
1372.192871;0.679000
1372.871948;0.702000
1373.573853;0.671000
1374.244873;0.672000
1374.916870;0.664000
1375.580933;0.657000
1376.237915;0.655000
1376.892944;0.639000
1377.531860;0.638000
1378.169922;0.646000
1378.815918;0.650000
1379.465942;0.667000
1380.132935;0.687000
1380.819946;0.695000
1381.514893;0.722000
1382.236938;0.739000
1382.975952;0.745000
1383.720947;0.731000
1384.451904;0.693000
1385.144897;0.691000
1385.835938;0.693000
1386.528931;0.691000
1387.219849;0.672000
1387.891846;0.654000
1388.545898;0.653000
1389.198853;0.649000
1389.847900;0.658000
1390.505859;0.667000
1391.172852;0.657000
1391.829956;0.679000
1392.508911;0.682000
1393.190918;0.698000
1393.888916;0.713000
1394.601929;0.696000
1395.297852;0.702000
1395.999878;0.690000
1396.689941;0.691000
1397.380859;0.678000
1398.058960;0.658000
1398.716919;0.650000
1399.366943;0.644000
1400.010864;0.640000
1400.650879;0.634000
1401.284912;0.638000
1401.922852;0.668000
1402.590942;0.717000
1403.307861;0.810000
1404.117920;0.785000
1404.902954;0.799000
1405.701904;0.791000
1406.492920;0.769000
1407.261963;0.724000
1407.985962;0.707000
1408.692871;0.691000
1409.383911;0.678000
1410.061890;0.664000
1410.725952;0.649000
1411.374878;0.647000
1412.021851;0.647000
1412.668945;0.661000
1413.329956;0.683000
1414.012939;0.726000
1414.738892;0.688000
1415.426880;0.670000
1416.096924;0.655000
1416.751953;0.666000
1417.417847;0.673000
1418.090942;0.659000
1418.749878;0.647000
1419.396851;0.649000
1420.045898;0.645000
1420.690918;0.638000
1421.328857;0.628000
1421.956909;0.617000
1422.573853;0.611000
1423.184937;0.602000
1423.786865;0.595000
1424.381958;0.589000
1424.970947;0.581000
1425.551880;0.584000
1426.135864;0.579000
1426.714844;0.577000
1427.291870;0.579000
1427.870850;0.589000
1428.459961;0.608000
1429.067871;0.638000
1429.705933;0.666000
1430.371948;0.706000
1431.077881;0.713000
1431.790894;0.722000
1432.512939;0.704000
1433.216919;0.684000
1433.900879;0.681000
1434.581909;0.659000
1435.240845;0.644000
1435.884888;0.629000
1436.513916;0.615000
1437.128906;0.608000
1437.736938;0.597000
1438.333862;0.590000
1438.923950;0.578000
1439.501953;0.578000
1440.079956;0.583000
1440.662964;0.579000
1441.241943;0.570000
1441.811890;0.566000
1442.377930;0.568000
1442.945923;0.589000
1443.534912;0.604000
1444.138916;0.614000
1444.752930;0.617000
1445.369873;0.618000
1445.987915;0.617000
1446.604858;0.610000
1447.214844;0.600000
1447.814941;0.594000
1448.408936;0.589000
1448.997925;0.591000
1449.588867;0.593000
1450.181885;0.610000
1450.791870;0.646000
1451.437866;0.706000
1452.143921;0.747000
1452.890869;0.765000
1453.655884;0.739000
1454.394897;0.751000
1455.145874;0.743000
1455.888916;0.728000
1456.616943;0.707000
1457.323853;0.680000
1458.003906;0.669000
1458.672852;0.661000
1459.333862;0.652000
1459.985962;0.646000
1460.631958;0.638000
1461.269897;0.631000
1461.900879;0.632000
1462.532959;0.635000
1463.167847;0.649000
1463.816895;0.666000
1464.482910;0.691000
1465.173950;0.729000
1465.902954;0.746000
1466.648926;0.758000
1467.406860;0.725000
1468.131958;0.722000
1468.853882;0.699000
1469.552856;0.680000
1470.232910;0.657000
1470.889893;0.652000
1471.541870;0.646000
1472.187866;0.639000
1472.826904;0.642000
1473.468872;0.631000
1474.099854;0.631000
1474.730957;0.638000
1475.368896;0.647000
1476.015869;0.664000
1476.679932;0.673000
1477.352905;0.681000
1478.033936;0.672000
1478.705933;0.673000
1479.378906;0.666000
1480.044922;0.664000
1480.708862;0.657000
1481.365845;0.644000
1482.009888;0.644000
1482.653931;0.637000
1483.290894;0.629000
1483.919922;0.623000
1484.542847;0.613000
1485.155884;0.604000
1485.759888;0.611000
1486.370850;0.614000
1486.984863;0.613000
1487.597900;0.613000
1488.210938;0.612000
1488.822876;0.615000
1489.437866;0.616000
1490.053955;0.621000
1490.674927;0.623000
1491.297852;0.629000
1491.926880;0.628000
1492.554932;0.639000
1493.193848;0.645000
1493.838867;0.643000
1494.481934;0.640000
1495.121948;0.635000
1495.756958;0.644000
1496.400879;0.637000
1497.037964;0.638000
1497.675903;0.629000
1498.304932;0.634000
1498.938965;0.631000
1499.569946;0.636000
1500.205933;0.638000
1500.843872;0.645000
1501.488892;0.646000
1502.134888;0.638000
1502.772949;0.643000
1503.415894;0.635000
1504.050903;0.642000
1504.692871;0.647000
1505.339844;0.650000
1505.989868;0.650000
1506.639893;0.645000
1507.284912;0.651000
1507.935913;0.650000
1508.585938;0.659000
1509.244873;0.666000
1509.910889;0.668000
1510.578857;0.655000
1511.233887;0.655000
1511.888916;0.645000
1512.533936;0.637000
1513.170898;0.625000
1513.795898;0.622000
1514.417847;0.618000
1515.035889;0.625000
1515.660889;0.641000
1516.301880;0.655000
1516.956909;0.689000
1517.645874;0.708000
1518.353882;0.739000
1519.092896;0.749000
1519.841919;0.721000
1520.562866;0.708000
1521.270874;0.698000
1521.968872;0.686000
1522.654907;0.674000
1523.328857;0.650000
1523.978882;0.636000
1524.614868;0.629000
1525.243896;0.611000
1525.854858;0.602000
1526.456909;0.596000
1527.052856;0.600000
1527.652954;0.633000
1528.285889;0.711000
1528.996948;0.833000
1529.829956;0.878000
1530.707886;0.869000
1531.576904;0.916000
1532.492920;0.905000
1533.397949;0.831000
1534.228882;0.775000
1535.003906;0.737000
1535.740845;0.711000
1536.451904;0.686000
1537.137939;0.664000
1537.801880;0.666000
1538.467896;0.656000
1539.123901;0.654000
1539.777954;0.634000
1540.411865;0.637000
1541.048950;0.642000
1541.690918;0.651000
1542.341919;0.662000
1543.003906;0.662000
1543.665894;0.657000
1544.322876;0.666000
1544.988892;0.676000
1545.664917;0.673000
1546.337891;0.664000
1547.001953;0.650000
1547.651855;0.654000
1548.305908;0.651000
1548.956909;0.650000
1549.606934;0.643000
1550.249878;0.634000
1550.883911;0.644000
1551.527954;0.643000
1552.170898;0.647000
1552.817871;0.641000
1553.458862;0.648000
1554.106934;0.651000
1554.757935;0.658000
1555.415894;0.657000
1556.072876;0.649000
1556.721924;0.658000
1557.379883;0.653000
1558.032959;0.647000
1558.679932;0.625000
1559.304932;0.612000
1559.916870;0.613000
1560.529907;0.613000
1561.142944;0.614000
1561.756958;0.619000
1562.375854;0.628000
1563.003906;0.649000
1563.652954;0.667000
1564.319946;0.703000
1565.022949;0.692000
1565.714844;0.698000
1566.412964;0.710000
1567.122925;0.696000
1567.818848;0.680000
1568.498901;0.659000
1569.157959;0.657000
1569.814941;0.643000
1570.457886;0.628000
1571.085938;0.614000
1571.699951;0.617000
1572.316895;0.613000
1572.929932;0.612000
1573.541870;0.602000
1574.143921;0.605000
1574.748901;0.625000
1575.373901;0.630000
1576.003906;0.646000
1576.649902;0.678000
1577.327881;0.695000
1578.022949;0.688000
1578.710938;0.706000
1579.416870;0.704000
1580.120850;0.685000
1580.805908;0.655000
1581.460938;0.656000
1582.116943;0.652000
1582.768921;0.646000
1583.414917;0.646000
1584.060913;0.634000
1584.694946;0.631000
1585.325928;0.641000
1585.966919;0.634000
1586.600952;0.649000
1587.249878;0.659000
1587.908936;0.704000
1588.612915;0.744000
1589.356934;0.769000
1590.125854;0.749000
1590.874878;0.734000
1591.608887;0.712000
1592.320923;0.690000
1593.010864;0.667000
1593.677856;0.648000
1594.325928;0.634000
1594.959961;0.621000
1595.580933;0.613000
1596.193848;0.605000
1596.798950;0.598000
1597.396851;0.592000
1597.988892;0.584000
1598.572876;0.593000
1599.165894;0.596000
1599.761963;0.621000
1600.382935;0.682000
1601.064941;0.804000
1601.868896;0.812000
1602.680908;0.775000
1603.455933;0.831000
1604.286865;0.826000
1605.112915;0.835000
1605.947876;0.816000
1606.763916;0.756000
1607.519897;0.741000
1608.260864;0.729000
1608.989868;0.720000
1609.709961;0.697000
1610.406860;0.672000
1611.078857;0.682000
1611.760864;0.675000
1612.435913;0.679000
1613.114868;0.685000
1613.799927;0.666000
1614.465942;0.654000
1615.119873;0.671000
1615.790894;0.682000
1616.472900;0.700000
1617.172852;0.723000
1617.895874;0.715000
1618.610962;0.708000
1619.318848;0.677000
1619.995850;0.653000
1620.648926;0.630000
1621.278931;0.622000
1621.900879;0.614000
1622.514893;0.616000
1623.130859;0.644000
1623.774902;0.686000
1624.460938;0.777000
1625.237915;0.829000
1626.066895;0.882000
1626.948853;0.809000
1627.757935;0.846000
1628.603882;0.835000
1629.438843;0.825000
1630.263916;0.792000
1631.055908;0.750000
1631.805908;0.709000
1632.514893;0.679000
1633.193848;0.653000
1633.846924;0.634000
1634.480957;0.611000
1635.091919;0.595000
1635.686890;0.593000
1636.279907;0.591000
1636.870850;0.606000
1637.476929;0.647000
1638.123901;0.757000
1638.880859;0.871000
1639.751953;0.828000
1640.579956;0.891000
1641.470947;0.884000
1642.354858;0.906000
1643.260864;0.809000
1644.069946;0.820000
1644.889893;0.802000
1645.691895;0.768000
1646.459961;0.716000
1647.175903;0.727000
1647.902954;0.733000
1648.635864;0.706000
1649.341919;0.686000
1650.027954;0.665000
1650.692871;0.653000
1651.345947;0.639000
1651.984863;0.617000
1652.601929;0.612000
1653.213867;0.601000
1653.814941;0.595000
1654.409912;0.588000
1654.997925;0.577000
1655.574951;0.582000
1656.156860;0.579000
1656.735962;0.577000
1657.312866;0.579000
1657.891846;0.579000
1658.470947;0.583000
1659.053955;0.584000
1659.637939;0.586000
1660.223877;0.583000
1660.806885;0.572000
1661.378906;0.592000
1661.970947;0.606000
1662.576904;0.672000
1663.248901;0.819000
1664.067871;0.852000
1664.919922;0.772000
1665.691895;0.784000
1666.475952;0.809000
1667.284912;0.837000
1668.121948;0.817000
1668.938843;0.768000
1669.706909;0.719000
1670.425903;0.680000
1671.105957;0.669000
1671.774902;0.650000
1672.424927;0.651000
1673.075928;0.667000
1673.742920;0.694000
1674.436890;0.705000
1675.141846;0.711000
1675.852905;0.705000
1676.557861;0.679000
1677.236938;0.662000
1677.898926;0.643000
1678.541870;0.644000
1679.185913;0.641000
1679.826904;0.647000
1680.473877;0.666000
1681.139893;0.696000
1681.835938;0.756000
1682.591919;0.826000
1683.417847;0.845000
1684.262939;0.788000
1685.050903;0.778000
1685.828857;0.758000
1686.586914;0.725000
1687.311890;0.695000
1688.006958;0.690000
1688.696899;0.681000
1689.377930;0.683000
1690.060913;0.686000
1690.746948;0.670000
1691.416870;0.659000
1692.075928;0.655000
1692.730957;0.650000
1693.380859;0.656000
1694.036865;0.679000
1694.715942;0.725000
1695.440918;0.752000
1696.192871;0.728000
1696.920898;0.733000
1697.653931;0.733000
1698.386963;0.723000
1699.109863;0.689000
1699.798950;0.669000
1700.467896;0.666000
1701.133911;0.662000
1701.795898;0.666000
1702.461914;0.673000
1703.134888;0.672000
1703.806885;0.680000
1704.486938;0.679000
1705.165894;0.707000
1705.872925;0.746000
1706.618896;0.770000
1707.388916;0.791000
1708.179932;0.777000
1708.956909;0.758000
1709.714844;0.733000
1710.447876;0.715000
1711.162964;0.695000
1711.857910;0.674000
1712.531860;0.651000
1713.182861;0.631000
1713.813843;0.618000
1714.431885;0.605000
1715.036865;0.594000
1715.630859;0.583000
1716.213867;0.585000
1716.798950;0.609000
1717.407959;0.733000
1718.140869;1.150000
1719.290894;0.972000
1720.262939;0.851000
1721.113892;0.854000
1721.967896;0.788000
1722.755859;0.800000
1723.555908;0.766000
1724.321899;0.739000
1725.060913;0.708000
1725.768921;0.680000
1726.448853;0.649000
1727.097900;0.642000
1727.739868;0.635000
1728.374878;0.649000
1729.023926;0.678000
1729.701904;0.698000
1730.399902;0.728000
1731.127930;0.785000
1731.912964;0.871000
1732.783936;0.888000
1733.671875;0.843000
1734.514893;0.801000
1735.315918;0.750000
1736.065918;0.701000
1736.766846;0.668000
1737.434937;0.634000
1738.068848;0.643000
1738.711914;0.635000
1739.346924;0.643000
1739.989868;0.686000
1740.675903;0.746000
1741.421875;0.774000
1742.195923;0.766000
1742.961914;0.758000
1743.719849;0.721000
1744.440918;0.708000
1745.148926;0.665000
1745.813843;0.651000
1746.464844;0.645000
1747.109863;0.642000
1747.751953;0.644000
1748.395874;0.666000
1749.061890;0.688000
1749.749878;0.695000
1750.444946;0.673000
1751.117920;0.649000
1751.766846;0.649000
1752.415894;0.646000
1753.061890;0.642000
1753.703857;0.640000
1754.343872;0.647000
1754.990845;0.663000
1755.653931;0.667000
1756.320923;0.668000
1756.988892;0.659000
1757.647949;0.649000
1758.296875;0.641000
1758.937866;0.633000
1759.570923;0.631000
1760.201904;0.631000
1760.832886;0.631000
1761.463867;0.634000
1762.097900;0.641000
1762.738892;0.644000
1763.382935;0.627000
1764.009888;0.633000
1764.642944;0.641000
1765.283936;0.638000
1765.921875;0.663000
1766.584961;0.692000
1767.276855;0.721000
1767.997925;0.744000
1768.741943;0.732000
1769.473877;0.708000
1770.181885;0.685000
1770.866943;0.660000
1771.526855;0.643000
1772.169922;0.627000
1772.796875;0.615000
1773.411865;0.608000
1774.019897;0.597000
1774.616943;0.597000
1775.213867;0.600000
1775.813843;0.615000
1776.428955;0.650000
1777.078857;0.697000
1777.775879;0.726000
1778.501953;0.733000
1779.234863;0.736000
1779.970947;0.726000
1780.696899;0.721000
1781.417847;0.684000
1782.101929;0.670000
1782.771851;0.647000
1783.418945;0.630000
1784.048950;0.617000
1784.665894;0.615000
1785.280884;0.616000
1785.896851;0.633000
1786.529907;0.659000
1787.188843;0.674000
1787.862915;0.716000
1788.578857;0.717000
1789.295898;0.714000
1790.009888;0.666000
1790.675903;0.645000
1791.320923;0.645000
1791.965942;0.648000
1792.613892;0.656000
1793.269897;0.665000
1793.934937;0.675000
1794.609863;0.683000
1795.292847;0.680000
1795.972900;0.670000
1796.642944;0.643000
1797.285889;0.639000
1797.924927;0.633000
1798.557861;0.636000
1799.193848;0.648000
1799.841919;0.676000
1800.517944;0.781000
1801.298950;0.857000
1802.155884;0.932000
1803.087891;0.863000
1803.950928;0.858000
1804.808960;0.855000
1805.663940;0.815000
1806.478882;0.747000
1807.225952;0.732000
1807.957886;0.718000
1808.675903;0.712000
1809.387939;0.694000
1810.081909;0.674000
1810.755859;0.657000
1811.412964;0.638000
1812.050903;0.631000
1812.681885;0.632000
1813.313843;0.645000
1813.958862;0.676000
1814.634888;0.736000
1815.370850;0.773000
1816.143921;0.757000
1816.900879;0.766000
1817.666870;0.773000
1818.439941;0.755000
1819.194946;0.755000
1819.949951;0.738000
1820.687866;0.713000
1821.400879;0.693000
1822.093872;0.675000
1822.768921;0.648000
1823.416870;0.635000
1824.051880;0.627000
1824.678955;0.613000
1825.291870;0.609000
1825.900879;0.620000
1826.520874;0.649000
1827.169922;0.732000
1827.901855;1.222000
1829.123901;0.898000
1830.021851;0.780000
1830.801880;0.832000
1831.633911;0.822000
1832.455933;0.754000
1833.209961;0.743000
1833.952881;0.745000
1834.697876;0.745000
1835.442871;0.735000
1836.177856;0.704000
1836.881958;0.720000
1837.601929;0.716000
1838.317871;0.711000
1839.028931;0.680000
1839.708862;0.673000
1840.381958;0.679000
1841.060913;0.682000
1841.742920;0.695000
1842.437866;0.679000
1843.116943;0.695000
1843.811890;0.694000
1844.505859;0.671000
1845.176880;0.647000
1845.823853;0.648000
1846.471924;0.645000
1847.116943;0.639000
1847.755859;0.631000
1848.386963;0.623000
1849.009888;0.619000
1849.628906;0.612000
1850.240845;0.601000
1850.841919;0.589000
1851.430908;0.580000
1852.010864;0.571000
1852.581909;0.559000
1853.140869;0.549000
1853.689941;0.542000
1854.231934;0.539000
1854.770874;0.539000
1855.309937;0.538000
1855.847900;0.553000
1856.400879;0.605000
1857.005859;0.695000
1857.700928;0.969000
