timestamp;value
2.035897;0.746640
3.010774;0.978928
3.872190;0.862784
4.733815;0.862784
5.431862;0.696864
6.293631;0.862784
7.349166;1.045296
8.194853;0.846192
8.958324;0.763232
9.868342;0.912560
11.072967;0.995520
11.932467;1.012112
13.010211;0.846192
13.687697;0.912560
14.564583;0.879376
15.542643;0.945744
16.614561;1.144848
18.075066;0.895968
18.468374;0.879376
19.735741;1.211216
20.417425;0.796416
20.512093;0.066368
21.780693;0.945744
22.365269;0.879376
23.146519;0.846192
24.316814;0.912560
25.192734;0.978928
26.169231;0.978928
27.048706;0.995520
27.925261;0.929152
29.094820;0.962336
30.168934;1.012112
31.042356;1.045296
32.120468;1.028704
33.191341;0.879376
33.869801;0.962336
35.137772;0.995520
35.822029;0.929152
36.895123;0.862784
37.577530;0.895968
38.555145;0.995520
39.527653;1.012112
40.598083;0.995520
41.572620;1.012112
42.645008;1.045296
43.624950;0.945744
44.499622;0.895968
45.572643;0.945744
46.547012;0.978928
47.326080;0.962336
48.595112;1.061888
49.470478;1.078480
50.934959;1.095072
51.531296;0.962336
52.493546;0.978928
53.565311;0.995520
54.540287;1.028704
56.005436;1.061888
56.883526;0.962336
57.855713;1.244400
59.126347;1.078480
60.002216;1.128256
61.072716;1.012112
62.246708;1.028704
63.120449;1.061888
64.387962;0.995520
65.559387;1.028704
66.146683;1.028704
67.608215;0.995520
68.190529;0.995520
69.263084;1.045296
70.727661;1.128256
71.408821;1.061888
72.676796;1.078480
73.553482;1.061888
74.724960;1.012112
75.991165;0.929152
76.482994;0.995520
77.652176;1.012112
78.725197;0.995520
79.793304;0.945744
80.475922;0.978928
81.552650;1.012112
82.425812;0.945744
83.402153;0.962336
84.572845;0.995520
85.353546;1.045296
86.533829;1.012112
87.497673;1.078480
88.573227;1.078480
89.741661;0.995520
90.615852;1.045296
91.885414;1.061888
92.665695;1.028704
93.736214;0.995520
95.103470;0.978928
95.687859;1.012112
96.955765;0.995520
97.834419;0.945744
98.711624;0.895968
99.881119;0.945744
100.368271;0.912560
101.341064;0.912560
102.222290;0.945744
103.391052;0.945744
104.268356;0.929152
105.438263;0.929152
106.021568;0.962336
106.996132;0.962336
107.875900;0.945744
108.850533;0.929152
109.728249;0.895968
110.800621;0.879376
111.581474;0.796416
112.262138;0.846192
113.628296;0.945744
114.503754;1.244400
115.773674;0.929152
116.358391;0.995520
117.432877;1.028704
118.797005;1.045296
119.675026;1.012112
120.845840;1.061888
121.429008;0.895968
122.501480;0.895968
123.184219;0.879376
124.353050;0.746640
124.746010;0.796416
125.721375;0.895968
126.691505;0.978928
127.862526;0.962336
128.544250;0.929152
129.909561;0.929152
130.789490;0.962336
131.374237;0.962336
132.346542;0.945744
133.423584;0.945744
134.592117;0.962336
135.176788;0.962336
136.249390;0.929152
137.028763;0.912560
138.200439;0.895968
138.879257;0.895968
139.661301;0.846192
140.831802;0.879376
141.708969;0.912560
142.391602;0.929152
143.661102;0.945744
144.633911;0.945744
145.314774;0.995520
146.682114;0.978928
147.266800;0.945744
148.143219;0.895968
149.021729;0.912560
149.996078;0.929152
150.872467;0.879376
151.851685;0.813008
152.531479;0.846192
153.508179;0.862784
154.285477;0.912560
155.358810;0.912560
156.139297;0.929152
157.407852;0.945744
158.379898;0.995520
159.161758;1.045296
160.622696;1.028704
161.112305;0.995520
162.379929;1.012112
163.549133;1.012112
164.134583;0.995520
165.597061;1.045296
166.277390;1.045296
167.256790;0.995520
168.326996;1.095072
169.397659;1.012112
170.372391;0.978928
171.349487;1.012112
172.423615;1.045296
173.397858;1.028704
174.664474;1.061888
175.932083;1.045296
176.612961;1.045296
177.880768;0.995520
178.564407;0.995520
179.929489;0.978928
180.517227;0.929152
181.390900;0.945744
182.855713;0.962336
183.341995;0.962336
184.514282;0.962336
185.487823;0.995520
186.559906;0.995520
187.340271;0.995520
188.313248;1.012112
189.482742;1.028704
190.361694;1.012112
191.437241;0.962336
192.310257;0.962336
193.285370;0.945744
194.262863;0.929152
195.138702;0.962336
196.602844;0.978928
197.089249;0.962336
198.261887;0.945744
199.331039;1.012112
200.403961;1.045296
201.086868;1.012112
202.353622;1.028704
203.132965;1.012112
204.108887;0.978928
205.279938;0.945744
205.962570;0.929152
207.231781;0.929152
207.815262;0.929152
208.788101;0.895968
209.666367;0.945744
210.641464;0.978928
211.617615;0.945744
212.884766;0.962336
213.565720;0.978928
214.739075;0.995520
215.515762;0.945744
216.590134;0.929152
217.466522;0.929152
218.249039;0.912560
219.320389;0.895968
220.100357;0.879376
221.173767;0.829600
221.659119;0.796416
222.535812;0.813008
223.315918;0.813008
224.391281;0.779824
225.168884;0.846192
225.757172;0.862784
226.633408;0.846192
227.803909;0.796416
228.293350;0.796416
228.973282;0.779824
229.848526;0.796416
230.533264;0.763232
231.608109;0.779824
232.188553;0.796416
233.261719;0.879376
233.945511;0.912560
235.118073;0.962336
235.893539;1.028704
237.066574;1.012112
237.941833;0.978928
239.015793;0.929152
239.696640;0.862784
240.578537;0.895968
241.648224;0.862784
242.329071;0.829600
243.597809;0.862784
244.475998;0.912560
245.449158;0.945744
245.938812;0.929152
246.913223;0.945744
247.790817;0.912560
249.061172;0.895968
249.546387;0.862784
250.522491;0.879376
251.396408;0.912560
252.471771;0.929152
253.251114;0.945744
254.226166;0.995520
255.396729;0.978928
256.271423;0.995520
257.539795;1.012112
258.221863;0.978928
259.296326;0.929152
259.978546;0.862784
261.051605;0.829600
261.634399;0.779824
262.707947;0.763232
263.195587;0.763232
263.980438;0.796416
264.852142;0.862784
266.024384;0.912560
266.611725;0.929152
267.581696;0.929152
268.556641;0.912560
269.631714;0.912560
270.313446;0.879376
271.386780;0.862784
271.969543;0.846192
273.045593;0.846192
273.724213;0.862784
274.798615;0.846192
275.383972;0.862784
276.261414;0.846192
277.429718;0.846192
277.916992;0.846192
278.795258;0.862784
279.673157;0.846192
280.746155;0.846192
281.329834;0.813008
282.210938;0.846192
283.377533;0.829600
283.963928;0.796416
284.939423;0.763232
285.424530;0.829600
286.402039;0.846192
287.084015;0.862784
288.450165;0.895968
288.841980;0.862784
289.716492;0.862784
290.691925;0.846192
291.764832;0.829600
292.152832;0.796416
292.932892;0.763232
293.908966;0.796416
294.589600;0.796416
295.369659;0.796416
296.150299;0.746640
297.049164;0.730048
297.612244;0.763232
298.394287;0.829600
299.470642;0.829600
300.051758;0.829600
301.027924;0.813008
301.805542;0.862784
302.685852;0.846192
303.462372;0.829600
304.535461;0.813008
305.511047;0.829600
305.900787;0.813008
306.680481;0.763232
307.559235;0.779824
308.773193;0.796416
309.020294;0.796416
309.997284;0.813008
310.680878;0.846192
311.653748;0.829600
312.434814;0.912560
313.410339;0.730048
313.896576;0.746640
314.872284;0.730048
315.847443;0.796416
316.334442;0.730048
316.917786;0.763232
317.212952;0.315248
317.795837;0.497760
318.869202;0.713456
318.966156;0.099552
319.357483;0.613904
319.453522;0.049776
320.339905;1.078480
321.305481;1.012112
321.694977;0.398208
321.988098;0.149328
322.675262;0.846192
323.552277;0.829600
323.841248;0.298656
324.134918;0.298656
326.849731;0.248880
327.683167;0.315248
327.805115;1.128256
327.815430;0.862784
327.822449;0.796416
328.422913;0.497760
329.007355;0.929152
329.980743;0.730048
330.368500;0.746640
330.949493;0.547536
331.631470;0.713456
332.797607;0.796416
333.187592;0.730048
334.065643;0.597312
334.746887;0.945744
335.917328;0.779824
336.211792;0.647088
336.796387;0.680272
337.673431;0.829600
338.647522;0.613904
338.939697;0.663680
339.622650;0.663680
340.110352;0.464576
341.087006;0.597312
341.186432;0.464576
341.671875;0.564128
342.549164;0.647088
343.035126;0.580720
343.619659;0.680272
344.693420;0.912560
345.569977;0.895968
346.351410;0.829600
347.232117;0.879376
347.914551;0.829600
349.278259;0.912560
349.763580;0.746640
350.546387;0.696864
351.326172;0.613904
351.616913;0.730048
352.396851;0.746640
353.079254;0.647088
353.566345;0.547536
353.664124;0.066368
354.247772;0.597312
355.144379;0.696864
355.515472;0.564128
356.297272;0.746640
357.175262;0.846192
358.050293;0.895968
358.245087;0.199104
358.537384;0.298656
358.732391;0.182512
359.415131;0.713456
360.001862;0.597312
360.779999;0.730048
361.463562;0.663680
362.339874;0.929152
363.415649;0.713456
363.803711;0.580720
364.485413;0.746640
364.974457;0.630496
365.947357;0.929152
366.831909;0.680272
367.215424;0.597312
367.897400;0.680272
368.778412;0.696864
369.360168;0.713456
369.944977;0.597312
370.436584;0.530944
370.727051;0.282064
371.018036;0.265472
371.115448;0.099552
371.509277;0.398208
371.895081;0.414800
372.772949;0.846192
372.969330;0.248880
373.747559;0.696864
374.040894;0.331840
374.335510;0.215696
374.528198;0.232288
375.407806;0.530944
375.800110;0.713456
376.478302;0.713456
377.161957;0.746640
377.942230;0.779824
378.917572;0.746640
379.307159;0.630496
379.405182;0.082960
380.281647;0.564128
380.476501;0.464576
380.962952;0.481168
381.452698;0.514352
382.132721;0.647088
383.208984;0.912560
383.988007;0.597312
384.281219;0.514352
384.573517;0.298656
384.864777;0.447984
385.545929;0.696864
386.425476;0.713456
387.009888;0.730048
388.082703;0.846192
388.862488;0.663680
389.445282;0.696864
389.559998;0.132736
390.032501;0.713456
391.007660;0.779824
391.200409;0.331840
391.590485;0.398208
391.885071;0.348432
392.177917;0.215696
392.370972;0.182512
392.665039;0.365024
392.763397;0.099552
393.346069;0.580720
394.127319;0.746640
394.909851;0.763232
395.687256;0.779824
396.858063;0.796416
397.151398;0.597312
398.123505;0.796416
398.613037;0.713456
399.586670;0.647088
399.976593;0.547536
399.979645;0.165920
400.464844;0.564128
400.952332;0.365024
401.633484;0.348432
401.734711;0.315248
402.616455;0.746640
403.000183;0.730048
403.681274;0.696864
404.367249;0.630496
405.243103;0.813008
406.411255;0.763232
406.900146;0.746640
407.192139;0.564128
407.681366;0.464576
408.070435;0.365024
408.360657;0.315248
408.361359;0.033184
408.655243;0.282064
408.752838;0.116144
409.338470;0.530944
410.312683;0.713456
410.408813;0.033184
410.508270;0.132736
410.701935;0.298656
410.704498;0.149328
411.287231;0.630496
412.067780;0.779824
413.240173;0.978928
413.627625;0.597312
414.310394;0.713456
415.384430;0.713456
415.674866;0.580720
416.259460;0.282064
416.653900;0.398208
416.959534;0.647088
417.625519;0.663680
418.405457;0.763232
419.280884;0.564128
419.769897;0.796416
420.078247;0.298656
420.160095;0.082960
420.551819;0.381616
420.743896;0.199104
421.231659;0.530944
422.013367;0.779824
422.793060;0.580720
422.986206;0.365024
423.668427;0.647088
424.935852;0.829600
425.327942;0.895968
426.107971;0.713456
426.791199;0.746640
427.568420;0.730048
428.058044;0.547536
428.543579;0.398208
429.423615;0.796416
430.008850;0.696864
430.398804;0.431392
431.180725;0.514352
431.569366;0.481168
431.956665;0.514352
432.736450;0.796416
433.615326;0.680272
433.710999;0.265472
434.298096;0.613904
434.881775;0.580720
435.371185;0.530944
435.953644;0.497760
436.343964;0.447984
437.026733;0.630496
438.003448;0.829600
438.978638;0.746640
439.272522;0.647088
439.951569;0.713456
440.536804;0.597312
441.419159;0.929152
442.488220;1.012112
443.169006;0.663680
443.949341;0.796416
444.828735;0.763232
445.413452;0.713456
446.094421;0.680272
446.778473;0.680272
447.069183;0.282064
448.141724;0.746640
448.435852;0.663680
449.117126;0.680272
450.093872;0.879376
450.580872;0.580720
451.461334;0.613904
452.433167;0.846192
453.604645;1.360544
453.993744;0.564128
454.381592;0.315248
455.261139;0.530944
455.551514;0.796416
456.236145;0.663680
457.016113;0.398208
457.406403;0.597312
458.284454;0.647088
458.675751;0.713456
459.354004;0.746640
460.231476;0.630496
460.538544;0.348432
460.538818;0.099552
461.110748;0.730048
461.596283;0.481168
461.695282;0.082960
462.183197;0.481168
462.864594;0.630496
463.550995;0.696864
464.131775;0.597312
464.718170;0.630496
465.789795;0.696864
465.989380;0.530944
466.864716;0.497760
467.059265;0.215696
467.156281;0.116144
467.352783;0.398208
467.449341;0.265472
467.642822;0.116144
467.643921;0.033184
467.741211;0.116144
468.032410;0.315248
468.714844;0.365024
469.301697;0.912560
469.983551;0.663680
470.859100;0.580720
471.056641;0.215696
471.151703;0.082960
471.156647;0.215696
471.251831;0.182512
471.931946;0.630496
472.518890;0.613904
473.006165;0.481168
473.491821;0.464576
474.176147;0.663680
475.053772;0.647088
475.344360;0.530944
475.942352;0.580720
476.321350;0.447984
476.906342;0.580720
477.199158;0.248880
478.172577;0.630496
478.271179;0.232288
478.370056;0.232288
478.563721;0.315248
479.441620;0.663680
479.540466;0.149328
479.731903;0.265472
480.121826;0.481168
481.198364;0.846192
481.780029;0.763232
482.561951;0.779824
483.339874;0.813008
484.165985;0.730048
484.901215;0.813008
486.071259;1.178032
486.849579;0.779824
487.630127;0.746640
487.824585;0.199104
488.021606;0.199104
488.702454;0.730048
488.801666;0.116144
489.775665;0.746640
489.776917;0.033184
489.778809;0.116144
490.654144;0.945744
491.628754;0.813008
492.114441;0.613904
492.407043;0.265472
492.602173;0.182512
492.799133;0.232288
493.089600;0.248880
493.676636;0.647088
494.454742;0.365024
494.846832;0.763232
496.114227;0.879376
496.601410;0.663680
497.089630;0.746640
497.771820;0.696864
498.452179;0.647088
499.037292;0.613904
499.427551;0.315248
499.622223;0.215696
500.502106;0.680272
500.987183;0.680272
501.768921;0.647088
502.451874;0.447984
502.840149;0.381616
503.037231;0.398208
503.426849;0.597312
503.718170;0.315248
504.305145;0.580720
504.789856;0.431392
505.571960;0.813008
506.156860;0.613904
507.131897;0.746640
507.617554;0.630496
508.204407;0.630496
508.789429;0.613904
509.472046;0.630496
510.057495;0.630496
510.738922;0.663680
511.419983;0.630496
512.298157;0.879376
512.787048;0.547536
513.372009;0.597312
513.954956;0.547536
514.542175;0.547536
515.420776;0.564128
515.710144;0.497760
516.004395;0.481168
516.296875;0.232288
516.298096;0.033184
516.492188;0.132736
517.369873;0.730048
517.372009;0.033184
517.372437;0.049776
517.465820;0.033184
517.952576;0.663680
518.147522;0.149328
518.930481;0.564128
519.169861;0.182512
519.515198;0.663680
520.291931;0.763232
521.074463;0.829600
522.146912;0.945744
522.732361;0.696864
523.023376;0.315248
523.317200;0.282064
523.512329;0.149328
524.193115;0.680272
524.973999;0.746640
525.655212;0.763232
526.240723;0.514352
527.058289;0.530944
527.217773;0.497760
527.899719;0.680272
528.677795;0.796416
529.656433;0.779824
531.703003;0.862784
532.480408;0.713456
533.164307;0.730048
534.335205;0.829600
534.822571;0.813008
535.212524;0.381616
536.381409;0.929152
536.576111;0.414800
537.358398;0.813008
538.332764;0.779824
539.014954;0.829600
539.892639;0.514352
540.184937;0.414800
540.770752;0.846192
541.450623;0.696864
542.232483;0.813008
543.307007;0.879376
543.693298;0.547536
544.083069;0.398208
544.863098;0.763232
545.741272;0.862784
547.011841;1.227808
547.788025;0.829600
548.665527;0.846192
549.742798;0.862784
550.128906;0.663680
550.422668;0.265472
551.005737;0.597312
551.887085;0.530944
552.080139;0.282064
552.179260;0.149328
552.663513;0.713456
553.642334;0.746640
553.838013;0.315248
554.615845;0.680272
555.198303;0.713456
555.883423;0.763232
556.760437;0.497760
557.248413;0.680272
557.735413;0.663680
558.807617;0.663680
559.098572;0.630496
559.585754;0.497760
559.878845;0.282064
560.075439;0.248880
560.365784;0.298656
560.658752;0.265472
560.953003;0.315248
561.445374;0.514352
561.730896;0.248880
561.925781;0.182512
562.613464;0.481168
562.809387;0.398208
563.584412;0.497760
563.586182;0.033184
563.685425;0.282064
564.170349;0.597312
565.170410;0.962336
565.923340;0.730048
566.703552;0.763232
567.484680;0.464576
567.776978;0.464576
568.752075;0.746640
568.946167;0.464576
569.725952;0.796416
570.897339;0.779824
571.385864;0.530944
571.678467;0.331840
572.750488;0.846192
572.849182;0.215696
573.823242;0.613904
574.113953;0.282064
574.309265;0.580720
574.896667;0.580720
575.285583;0.447984
576.161011;0.530944
576.166626;0.315248
576.650757;0.547536
577.624146;0.895968
578.404236;0.796416
579.086060;0.282064
579.283325;0.348432
579.478516;0.298656
579.577698;0.199104
579.671936;0.149328
580.355713;0.680272
581.137268;0.464576
581.524536;0.564128
581.818726;0.481168
582.696289;0.630496
582.988770;0.514352
583.378967;0.398208
583.863647;0.431392
584.643921;0.497760
584.937378;0.414800
585.230774;0.530944
585.620728;0.365024
586.303040;0.497760
586.496277;0.348432
586.693542;0.182512
587.575439;0.613904
588.156616;0.895968
589.031372;0.829600
589.815063;0.696864
590.493896;0.746640
591.177002;0.713456
592.053833;0.895968
593.031006;1.012112
594.101379;0.995520
594.883606;0.846192
595.273499;0.381616
596.248169;0.630496
596.638550;0.680272
597.221497;0.597312
597.613586;0.414800
598.196655;0.580720
598.783508;0.580720
599.759033;1.012112
600.538940;1.012112
601.321472;0.530944
601.611206;0.547536
602.196228;0.530944
602.778381;0.547536
603.364197;0.647088
603.950134;0.564128
604.730652;0.447984
605.119446;0.680272
605.317383;0.265472
605.607910;0.282064
605.801453;0.149328
606.488770;0.398208
606.777039;0.564128
606.875000;0.165920
607.166626;0.232288
607.556641;0.414800
607.753967;0.165920
608.241211;0.514352
609.023743;0.564128
609.314026;0.348432
609.799255;0.680272
609.899658;0.116144
610.581360;0.663680
610.776367;0.199104
611.067505;0.282064
611.262085;0.132736
611.554382;0.298656
611.944153;0.464576
613.505005;0.779824
613.798828;0.331840
614.089966;0.315248
614.381775;0.248880
615.067932;0.331840
615.260193;0.298656
615.456787;0.282064
615.553833;0.298656
615.844666;0.232288
616.624817;0.796416
617.698181;0.763232
618.282532;0.879376
618.965759;0.746640
619.845642;0.481168
620.134521;0.663680
620.719238;0.530944
621.501404;0.796416
622.798584;0.879376
623.197632;0.779824
623.970154;0.846192
624.629211;0.680272
625.793030;0.862784
626.311890;0.730048
627.547302;0.945744
627.936646;0.696864
628.423523;0.514352
628.921509;0.564128
629.398987;0.497760
629.982727;0.597312
630.957520;0.497760
631.155273;0.564128
631.639526;0.547536
632.032349;0.431392
632.714539;0.613904
633.206421;0.547536
633.591248;0.348432
634.175903;0.580720
634.956909;0.613904
635.442322;0.630496
636.126038;0.331840
636.421509;0.564128
636.711914;0.414800
637.686035;0.663680
637.980225;0.613904
638.466919;0.514352
639.246826;0.431392
639.540894;0.580720
640.124817;0.580720
640.709106;0.580720
641.097229;0.431392
641.683228;0.564128
642.564941;0.647088
642.859070;0.331840
643.340210;0.564128
643.632446;0.398208
644.414246;0.481168
644.900635;0.796416
646.072144;0.962336
647.340271;0.746640
648.215271;0.514352
648.411560;0.215696
649.003296;0.481168
649.080444;0.431392
649.874939;0.580720
650.396301;0.796416
650.946228;0.564128
651.433105;0.530944
651.725586;0.232288
652.310120;0.597312
653.290649;0.895968
653.779724;0.564128
654.455383;0.713456
655.239746;0.730048
655.723083;0.497760
656.507202;0.597312
656.602661;0.099552
656.892944;0.365024
657.478210;0.680272
658.164856;0.663680
658.942017;0.680272
659.527649;0.763232
660.406006;0.746640
661.475098;0.746640
661.670593;0.232288
661.771484;0.398208
662.354248;0.680272
662.744629;0.381616
663.132874;0.398208
664.110901;0.763232
664.498352;0.497760
665.571533;1.178032
667.033081;0.547536
667.522156;0.497760
668.009521;0.514352
668.887573;0.431392
669.372681;0.663680
670.058167;0.547536
670.253174;0.414800
670.642883;0.613904
671.226074;0.564128
671.715149;0.414800
672.592712;0.530944
672.885132;0.580720
673.276489;0.481168
674.055481;0.530944
674.252014;0.381616
675.222839;0.613904
675.515198;0.464576
675.905396;0.630496
676.393127;0.497760
676.880310;0.497760
677.369751;0.497760
678.342957;0.547536
678.733887;0.564128
679.124939;0.680272
679.805969;0.613904
680.490540;0.547536
680.975830;0.597312
681.465027;0.564128
682.246277;0.597312
682.635254;0.564128
683.512573;0.530944
683.709534;0.547536
684.292480;0.547536
684.876099;0.597312
685.460938;0.580720
686.342346;0.580720
686.630615;0.547536
687.215515;0.564128
687.801208;0.613904
688.386353;0.647088
689.263000;0.580720
689.558289;0.580720
690.141602;0.597312
691.118774;0.597312
691.510315;0.580720
691.898193;0.580720
692.482788;0.580720
693.358093;0.796416
694.334534;0.713456
694.723083;0.696864
695.310669;0.630496
696.091553;0.613904
696.576538;0.597312
696.870239;0.331840
697.453186;0.597312
698.335632;0.597312
698.821106;0.564128
699.208313;0.514352
700.088074;0.514352
700.573181;0.580720
700.963318;0.481168
701.354126;0.613904
701.940918;0.597312
702.815796;0.564128
703.109131;0.564128
703.693359;0.580720
704.376404;0.580720
704.766052;0.530944
705.352966;0.580720
706.228943;0.564128
706.521423;0.564128
707.497253;0.564128
707.790405;0.630496
708.276245;0.597312
708.862610;0.547536
709.446228;0.580720
710.423096;0.580720
710.620422;0.580720
711.495239;0.564128
711.689209;0.564128
712.276306;0.597312
712.861145;0.597312
713.640564;0.580720
714.125977;0.597312
714.711914;0.597312
715.298706;0.647088
715.978516;0.613904
716.956116;0.613904
717.344727;0.613904
717.733643;0.597312
718.614319;0.564128
719.001526;0.613904
719.886414;0.630496
720.171265;0.613904
720.756104;0.564128
721.641541;0.580720
722.025574;0.613904
722.621033;0.613904
723.194153;0.613904
724.171448;0.613904
724.366333;0.597312
725.339355;0.613904
725.631836;0.613904
726.316040;0.647088
727.195801;0.630496
727.483765;0.613904
728.070862;0.597312
728.950867;0.613904
729.338318;0.597312
730.311829;0.613904
730.607239;0.597312
731.093323;0.580720
731.678528;0.597312
732.473633;0.597312
732.848206;0.564128
733.438171;0.530944
733.919006;0.530944
734.505432;0.597312
735.091309;0.580720
735.871155;0.564128
736.261108;0.597312
736.943115;0.613904
737.723206;0.647088
738.209473;0.630496
738.996216;0.597312
739.381470;0.613904
740.064575;0.630496
740.943237;0.630496
741.233643;0.630496
741.915955;0.647088
742.597168;0.630496
743.575012;0.613904
743.964050;0.630496
744.449097;0.613904
744.939636;0.564128
745.815857;0.564128
746.204041;0.613904
746.790161;0.597312
747.666626;0.630496
747.961792;0.597312
748.544861;0.597312
749.228638;0.647088
749.909546;0.663680
750.591797;0.680272
751.469788;0.647088
751.861450;0.647088
752.738220;0.647088
753.224121;0.663680
753.809326;0.663680
754.786194;0.613904
755.077148;0.613904
755.663208;0.613904
756.541260;0.613904
756.929810;0.597312
757.515625;0.580720
758.112488;0.613904
758.753723;0.597312
759.779724;0.613904
760.063416;0.613904
760.735779;0.647088
761.614258;0.647088
761.805420;0.613904
762.390259;0.597312
763.271301;0.613904
763.659119;0.613904
764.244507;0.613904
765.121887;0.613904
765.419006;0.564128
766.388489;0.613904
766.680542;0.630496
767.267456;0.613904
768.144775;0.580720
768.434631;0.564128
769.021790;0.597312
769.705872;0.613904
770.289001;0.613904
770.872803;0.613904
771.559265;0.647088
772.139648;0.597312
772.726868;0.613904
773.408386;0.630496
774.383728;0.696864
774.772095;0.680272
775.162720;0.431392
775.554688;0.398208
776.628784;0.663680
777.017212;0.647088
777.504211;0.613904
778.089172;0.597312
778.869324;0.580720
779.648682;0.630496
780.041504;0.647088
780.623047;0.630496
781.208008;0.630496
781.894775;0.597312
782.673218;0.613904
783.157227;0.663680
783.742371;0.647088
784.425110;0.630496
785.305481;0.630496
785.889954;0.647088
786.375244;0.680272
787.353760;0.663680
787.744141;0.647088
788.324646;0.647088
789.300415;0.647088
789.595032;0.630496
790.471924;0.663680
790.862000;0.630496
791.448547;0.597312
792.131104;0.630496
793.103821;0.647088
793.397400;0.663680
794.372192;0.647088
794.664490;0.613904
795.345642;0.647088
796.030640;0.680272
796.906677;0.647088
797.297058;0.663680
798.271240;0.630496
798.567078;0.630496
799.442261;0.663680
799.927490;0.663680
800.515259;0.647088
801.488037;0.630496
801.780151;0.613904
802.759583;0.647088
803.145447;0.647088
804.123474;0.647088
804.417603;0.630496
805.293091;0.580720
805.587402;0.630496
806.657410;0.663680
807.240906;0.663680
807.535461;0.613904
808.412292;0.613904
808.802246;0.647088
809.483093;0.663680
810.264648;0.630496
810.750244;0.630496
811.335266;0.613904
811.922974;0.630496
812.897705;0.630496
813.385010;0.630496
813.870605;0.597312
814.357788;0.580720
815.333252;0.580720
815.625793;0.597312
816.212341;0.630496
816.893188;0.630496
817.480713;0.630496
818.068115;0.630496
818.940369;0.663680
819.428223;0.680272
820.500488;0.696864
820.890991;0.696864
821.770630;0.663680
822.256897;0.663680
822.841187;0.663680
823.718018;0.647088
824.108032;0.613904
824.695068;0.597312
825.574585;0.580720
825.866028;0.580720
826.741089;0.613904
827.130676;0.613904
827.715515;0.580720
828.596436;0.597312
828.986633;0.630496
829.568481;0.647088
830.642578;0.663680
831.130127;0.647088
831.520813;0.680272
832.493530;0.647088
832.884949;0.680272
833.566345;0.680272
834.443115;0.680272
834.930664;0.663680
835.812805;0.663680
836.300354;0.647088
837.177307;0.597312
837.567139;0.597312
837.953552;0.580720
838.540100;0.597312
839.418091;0.597312
839.808411;0.613904
840.683167;0.597312
840.977905;0.597312
841.658997;0.613904
842.440674;0.630496
843.219666;0.597312
843.514832;0.597312
844.391357;0.613904
844.877686;0.597312
845.268005;0.630496
846.147766;0.613904
846.533813;0.597312
847.118408;0.597312
847.998047;0.597312
848.386597;0.613904
849.263977;0.597312
849.557739;0.580720
850.045532;0.597312
850.925598;0.597312
851.311523;0.630496
851.898865;0.630496
852.580750;0.630496
853.166199;0.630496
853.846130;0.663680
854.918518;0.680272
855.213074;0.663680
855.894104;0.647088
856.675354;0.647088
857.161133;0.663680
857.749023;0.613904
858.428772;0.630496
859.013733;0.580720
859.895203;0.613904
860.281860;0.630496
860.868042;0.613904
861.650635;0.613904
862.036194;0.597312
862.917786;0.613904
863.304443;0.663680
863.986389;0.647088
864.770447;0.630496
865.253723;0.630496
866.033691;0.647088
866.523560;0.663680
867.400879;0.630496
867.790833;0.613904
868.666748;0.597312
869.056702;0.613904
869.641846;0.613904
870.518860;0.630496
870.908813;0.613904
871.887146;0.613904
872.274841;0.613904
872.761414;0.647088
873.643066;0.647088
874.029724;0.663680
874.711487;0.647088
875.590881;0.663680
876.077209;0.680272
876.953918;0.663680
877.343994;0.630496
878.028015;0.630496
878.614075;0.647088
879.588440;0.647088
879.991821;0.630496
880.954102;0.613904
881.176514;0.580720
881.931030;0.597312
882.318176;0.613904
882.999878;0.647088
883.977417;0.647088
884.379089;0.647088
884.853394;0.630496
885.534241;0.647088
886.222961;0.663680
887.192444;0.663680
887.486450;0.647088
888.365112;0.630496
889.144470;0.630496
889.434143;0.630496
890.425476;0.630496
890.705505;0.630496
891.288879;0.613904
891.871704;0.564128
892.751343;0.597312
893.139709;0.613904
893.724670;0.630496
894.701294;0.663680
894.992432;0.663680
895.870911;0.647088
896.261475;0.630496
896.945923;0.647088
897.822754;0.663680
898.307373;0.663680
898.891785;0.630496
899.478943;0.613904
900.159668;0.613904
900.747253;0.630496
901.426819;0.663680
902.109863;0.630496
902.694824;0.630496
903.381287;0.630496
903.962769;0.630496
904.745422;0.663680
905.231567;0.647088
905.912415;0.597312
906.789490;0.613904
907.082275;0.630496
907.765137;0.647088
908.642761;0.630496
909.034180;0.647088
909.815491;0.613904
910.300110;0.613904
910.885193;0.630496
911.669250;0.663680
912.249939;0.647088
912.836609;0.630496
913.714294;0.630496
914.104919;0.663680
914.787415;0.663680
915.857056;0.647088
916.058105;0.630496
917.030334;0.630496
917.319641;0.630496
918.102600;0.647088
918.589233;0.647088
919.271790;0.630496
919.856812;0.630496
920.830139;0.630496
921.124451;0.647088
922.196716;0.630496
922.589661;0.613904
923.462280;0.613904
923.852295;0.630496
924.339722;0.630496
924.925415;0.630496
925.706238;0.613904
926.486084;0.647088
927.267761;0.663680
927.657288;0.680272
928.630371;0.663680
928.829590;0.647088
929.509399;0.647088
930.190552;0.663680
930.972900;0.647088
931.749878;0.630496
932.044617;0.613904
932.629944;0.613904
933.309937;0.630496
934.191589;0.613904
934.482056;0.613904
935.096497;0.580720
935.747498;0.613904
936.334534;0.613904
937.214661;0.613904
937.600342;0.647088
938.188232;0.630496
938.772583;0.597312
939.649780;0.630496
940.039612;0.630496
941.111938;0.647088
941.426758;0.647088
942.379700;0.630496
942.769348;0.630496
943.257202;0.630496
943.938293;0.630496
944.720886;0.630496
945.109741;0.613904
946.083252;0.597312
946.375793;0.613904
948.395569;0.630496
948.415894;0.647088
948.425415;0.630496
949.406738;0.630496
949.496704;0.630496
950.277893;0.647088
951.154175;0.663680
951.449463;0.647088
952.129517;0.663680
953.105957;0.630496
953.396057;0.630496
954.078369;0.630496
954.662903;0.630496
955.251343;0.613904
955.930969;0.597312
956.617188;0.597312
957.101135;0.597312
957.685852;0.597312
958.564453;0.613904
958.953430;0.613904
959.928040;0.613904
960.125488;0.613904
960.708801;0.613904
961.687683;0.647088
962.173035;0.647088
962.659851;0.647088
963.340576;0.613904
963.926270;0.597312
964.802979;0.597312
965.097717;0.630496
965.778137;0.613904
966.460571;0.613904
967.339539;0.597312
967.731445;0.647088
968.705200;0.663680
969.190613;0.663680
969.877625;0.663680
970.265259;0.663680
971.142944;0.647088
971.628235;0.680272
972.509094;0.663680
973.383179;0.630496
973.678040;0.597312
974.066589;0.613904
974.653442;0.597312
975.530273;0.613904
975.920227;0.630496
976.508789;0.597312
977.088318;0.597312
977.770752;0.613904
978.552795;0.647088
979.040771;0.647088
979.722900;0.647088
980.698669;0.663680
981.089539;0.680272
981.672852;0.680272
982.355408;0.680272
983.036804;0.663680
983.725281;0.663680
984.888245;0.696864
985.278748;0.663680
985.767395;0.630496
986.355164;0.647088
987.426331;0.630496
987.738770;0.630496
988.303589;0.630496
989.183044;0.613904
989.471130;0.580720
990.057739;0.630496
990.740723;0.647088
991.426636;0.647088
992.299438;0.663680
993.080750;0.696864
993.568420;0.680272
994.151672;0.713456
995.030212;0.713456
995.516235;0.680272
996.491211;0.663680
996.883301;0.663680
997.859497;0.647088
998.152771;0.630496
998.735474;0.613904
999.319214;0.564128
1000.100525;0.597312
1000.785583;0.613904
1001.172424;0.597312
1001.757568;0.613904
1002.342102;0.613904
1003.218689;0.630496
1003.706604;0.680272
1004.684265;0.680272
1005.071289;0.680272
1005.658386;0.680272
1006.732910;0.680272
1007.219727;0.663680
1007.705627;0.663680
1008.776978;0.630496
1009.068848;0.630496
1009.558533;0.613904
1010.436218;0.613904
1010.823914;0.613904
1011.605957;0.580720
1011.995911;0.613904
1012.676758;0.630496
1013.654419;0.647088
1013.948242;0.647088
1015.016846;0.663680
1015.309265;0.680272
1015.991516;0.696864
1016.872314;0.713456
1017.357422;0.680272
1018.040833;0.663680
1018.625916;0.630496
1019.600769;0.647088
1019.989014;0.663680
1020.870483;0.630496
1021.164490;0.580720
1022.234314;0.613904
1022.528198;0.597312
1023.011902;0.597312
1023.696594;0.597312
1024.181519;0.597312
1024.766724;0.597312
1025.743408;0.597312
1026.034546;0.630496
1026.624512;0.630496
1027.500122;0.647088
1028.183350;0.647088
1028.570801;0.663680
1029.641724;0.680272
1029.937012;0.663680
1030.911377;0.630496
1031.301758;0.613904
1031.884888;0.630496
1032.469238;0.613904
1033.056885;0.613904
1034.126831;0.613904
1034.517212;0.564128
1034.812012;0.597312
1035.491821;0.613904
1036.373657;0.613904
1036.762573;0.613904
1037.639282;0.613904
1038.028931;0.613904
1038.514648;0.613904
1039.489746;0.630496
1039.786865;0.647088
1040.464478;0.647088
1041.049438;0.613904
1041.931274;0.613904
1042.317139;0.630496
1043.199097;0.613904
1043.489014;0.597312
1044.074585;0.580720
1044.954590;0.580720
1045.244019;0.597312
1045.924438;0.597312
1046.708862;0.597312
1047.388062;0.597312
1047.681641;0.613904
1048.362427;0.630496
1048.949829;0.647088
1049.922485;0.663680
1050.312134;0.663680
1051.093872;0.647088
1052.068359;0.630496
1052.362061;0.630496
1053.238281;0.647088
1053.531494;0.630496
1054.116577;0.630496
1054.700317;0.613904
1055.677979;0.613904
1055.969971;0.613904
1056.945312;0.613904
1057.334839;0.630496
1057.917236;0.630496
1058.725098;0.613904
1059.087524;0.630496
1059.769775;0.647088
1060.355591;0.663680
1061.040649;0.647088
1061.822998;0.647088
1062.307495;0.647088
1062.989380;0.630496
1063.869019;0.630496
1064.259033;0.613904
1064.839844;0.613904
1065.622437;0.597312
1066.011963;0.613904
1066.597168;0.597312
1067.279297;0.597312
1067.862793;0.597312
1068.447266;0.630496
1069.426270;0.647088
1069.812378;0.696864
1070.499023;0.713456
1071.276978;0.746640
1072.251465;0.730048
1072.737549;0.730048
1073.421875;0.696864
1074.102417;0.663680
1074.690186;0.647088
1075.663818;0.630496
1075.957153;0.630496
1076.735596;0.613904
1077.614746;0.580720
1078.004272;0.597312
1078.392822;0.613904
1079.465576;0.597312
1079.856323;0.613904
1080.732788;0.597312
1081.124634;0.613904
1081.416016;0.613904
1082.097656;0.630496
1083.170532;0.663680
1083.466431;0.647088
1084.440186;0.630496
1084.635010;0.647088
1085.317261;0.647088
1085.902222;0.630496
1086.684814;0.630496
1087.169922;0.630496
1087.850220;0.630496
1088.437744;0.630496
1089.315186;0.630496
1090.094849;0.630496
1090.485962;0.630496
1091.362793;0.630496
1091.849976;0.647088
1092.239746;0.630496
1093.212646;0.630496
1093.603516;0.663680
1094.188477;0.647088
1094.872559;0.647088
1095.655029;0.647088
1096.139771;0.630496
1097.017578;0.647088
1097.797852;0.647088
1098.090088;0.613904
1098.674927;0.630496
1099.260010;0.630496
1100.138184;0.630496
1100.528442;0.630496
1101.210205;0.630496
1101.795410;0.630496
1102.475586;0.663680
1103.158569;0.647088
1103.743896;0.647088
1104.425659;0.630496
1105.498169;0.647088
1105.989136;0.647088
1106.768066;0.630496
1107.062500;0.647088
1107.645142;0.630496
1108.230103;0.647088
1109.203613;0.647088
1109.593140;0.647088
1110.178223;0.647088
1111.251099;0.647088
1111.545166;0.647088
1112.518188;0.647088
1112.812866;0.630496
1113.786011;0.630496
1114.078247;0.597312
1114.663208;0.630496
1115.248779;0.613904
1116.126465;0.613904
1116.519653;0.613904
1117.297119;0.597312
1117.688477;0.613904
1118.271606;0.613904
1119.248901;0.613904
1119.639038;0.613904
1120.125366;0.613904
1120.713013;0.597312
1121.392822;0.613904
1121.975952;0.597312
1122.757935;0.597312
1123.148315;0.564128
1123.730957;0.580720
1124.514771;0.580720
1125.291992;0.580720
1125.585938;0.580720
1125.975464;0.564128
1126.560547;0.580720
1127.145508;0.580720
1127.728516;0.580720
1128.411011;0.630496
1128.995972;0.613904
1129.778564;0.613904
1131.728149;0.746640
1132.216309;0.497760
1132.997803;0.481168
1133.872803;0.763232
1134.360596;0.846192
1135.333496;0.978928
1136.115967;0.564128
1136.799194;0.564128
1137.189453;0.580720
1137.673584;0.597312
1138.554199;0.580720
1138.942871;0.564128
1139.331177;0.564128
1140.213257;0.597312
1140.599121;0.647088
1141.380493;0.730048
1142.261230;0.879376
1142.940552;0.763232
1143.817139;0.829600
1144.989990;0.846192
1145.377686;0.713456
1146.058960;0.696864
1146.940430;0.680272
1147.423950;0.663680
1148.496338;0.647088
1148.890747;0.613904
1149.278442;0.597312
1150.158325;0.613904
1150.547363;0.597312
1151.033203;0.580720
1151.911987;0.564128
1152.299438;0.564128
1152.788574;0.580720
1153.571167;0.564128
1153.960083;0.580720
1154.446045;0.580720
1155.030762;0.580720
1155.906494;0.564128
1156.201050;0.580720
1156.784058;0.580720
1157.369873;0.580720
1157.956543;0.564128
1158.738525;0.580720
1159.124512;0.580720
1159.708984;0.580720
1160.493042;0.580720
1160.880981;0.597312
1161.464111;0.580720
1162.246582;0.580720
1163.024658;0.613904
1163.321045;0.613904
1163.804321;0.597312
1164.779053;0.613904
1165.076660;0.597312
1165.658569;0.580720
1166.444702;0.597312
1166.826904;0.613904
1167.708496;0.580720
1168.000854;0.580720
1168.583984;0.580720
1169.463501;0.580720
1169.751709;0.580720
1170.338867;0.580720
1171.218140;0.580720
1171.508423;0.597312
1172.094482;0.597312
1172.972412;0.597312
1173.262573;0.580720
1173.944946;0.580720
1174.726440;0.597312
1175.018677;0.580720
1176.090942;0.564128
1176.288818;0.580720
1176.774048;0.597312
1177.454224;0.613904
1178.431519;0.630496
1178.822998;0.630496
1179.307007;0.647088
1180.189087;0.680272
1181.064697;0.696864
1181.355957;0.663680
1182.037354;0.647088
1183.011963;0.647088
1183.306519;0.630496
1183.891602;0.630496
1184.572144;0.613904
1185.449585;0.597312
1185.744263;0.597312
1186.718872;0.597312
1187.012817;0.597312
1187.499268;0.597312
1188.084351;0.580720
1188.864746;0.597312
1189.349731;0.613904
1190.228149;0.630496
1190.617798;0.630496
1191.202881;0.630496
1192.079712;0.630496
1192.469849;0.647088
1193.544556;0.647088
1193.839722;0.630496
1194.420288;0.613904
1195.204224;0.597312
1195.687988;0.597312
1196.178955;0.597312
1196.959229;0.597312
1197.736938;0.597312
1198.030640;0.597312
1198.514771;0.580720
1199.101807;0.580720
1199.880371;0.580720
1200.269775;0.597312
1200.952271;0.613904
1201.537598;0.597312
1202.124146;0.597312
1202.709351;0.613904
1203.390503;0.613904
1204.364868;0.630496
1204.560791;0.613904
1205.539062;0.630496
1205.827393;0.597312
1206.414429;0.597312
1206.999634;0.597312
1207.582520;0.597312
1208.170044;0.580720
1209.046753;0.580720
1209.340332;0.597312
1210.019897;0.630496
1211.094727;0.696864
1211.777710;0.763232
1212.360718;0.829600
1213.140381;0.796416
1214.214478;0.779824
1214.604614;0.713456
1215.382690;0.779824
1216.264038;0.696864
1216.748169;0.647088
1217.627197;0.647088
1218.017944;0.647088
1218.602173;0.613904
1219.189087;0.580720
1220.161377;0.613904
1220.672974;0.630496
1221.134644;0.663680
1222.111328;0.647088
1222.502197;0.630496
1222.993652;0.630496
1223.680542;0.647088
1224.353149;0.647088
1225.330200;0.647088
1225.624634;0.630496
1226.209473;0.630496
1226.888672;0.613904
1227.475952;0.663680
1228.449707;0.680272
1228.839722;0.696864
1229.616943;0.713456
1230.591919;0.696864
1230.984985;0.696864
1231.954468;0.663680
1232.344727;0.680272
1232.929077;0.647088
1233.906616;0.647088
1234.197144;0.597312
1234.783936;0.597312
1235.972900;0.613904
1236.050171;0.613904
1237.028320;0.630496
1237.318237;0.580720
1237.901733;0.597312
1238.683838;0.613904
1239.097900;0.630496
1240.046997;0.680272
1240.339722;0.597312
1241.023071;0.647088
1242.000610;0.597312
1242.193970;0.547536
1242.973267;0.514352
1243.364868;0.713456
1244.663940;0.945744
1245.313721;0.713456
1245.799316;0.696864
1246.678589;0.945744
1247.749268;0.680272
1248.043945;0.663680
1248.724609;0.663680
1249.212769;0.464576
1249.602661;0.431392
1250.580688;0.613904
1250.970703;0.613904
1251.456665;0.647088
1252.234497;0.730048
1253.209351;0.663680
1253.502197;0.613904
1254.477539;0.597312
1254.769897;0.597312
1255.748047;0.713456
1256.134888;0.696864
1256.721313;0.630496
1258.182007;1.410320
1259.256348;0.713456
1259.646606;0.796416
1260.915161;0.929152
1261.304199;0.680272
1262.279175;0.746640
1262.766602;0.763232
1263.549683;0.663680
1264.328735;0.530944
1264.617065;0.630496
1265.302368;0.713456
1265.789429;0.497760
1266.762695;0.680272
1267.152100;0.663680
1268.226562;0.663680
1268.517212;0.564128
1269.005127;0.613904
1269.981567;0.630496
1270.273071;0.663680
1270.954712;0.663680
1272.029663;0.680272
1272.321899;0.630496
1273.007568;0.663680
1273.587280;0.630496
1274.174316;0.647088
1274.759399;0.564128
1275.637451;0.647088
1276.124512;0.730048
1277.196899;0.663680
1277.587891;0.647088
1277.975098;0.547536
1278.954468;0.779824
1280.314819;1.111664
1280.901978;1.028704
1281.974731;0.713456
1282.265747;0.613904
1283.339844;0.895968
1284.314331;0.995520
1284.899780;0.746640
1285.874634;0.796416
1286.458862;0.763232
1287.338989;0.763232
1288.020264;0.796416
1288.994019;0.730048
1289.480713;0.696864
1290.164429;0.730048
1291.044067;0.680272
1292.210693;1.045296
1292.699707;0.779824
1293.479736;0.746640
1294.452881;0.680272
1294.752563;0.365024
1295.135742;0.630496
1295.820312;0.730048
1296.695312;0.846192
1297.280640;0.547536
1298.159912;0.514352
1298.548096;0.796416
1299.621216;0.746640
1300.109985;0.846192
1301.084595;0.779824
1301.670288;0.779824
1302.646240;0.796416
1303.325684;0.796416
1304.105347;0.763232
1304.983521;0.945744
1305.863770;0.713456
1306.740234;0.613904
1307.035034;0.647088
1307.713379;0.680272
1308.497070;0.630496
1308.982544;0.696864
1309.861450;0.696864
1310.348022;0.680272
1311.320435;0.663680
1311.710449;0.663680
1312.395020;0.663680
1313.274780;0.663680
1313.661987;0.647088
1314.542236;0.597312
1314.928589;0.630496
1315.515869;0.647088
1316.197754;0.647088
1316.878052;0.647088
1317.664551;0.763232
1318.341431;0.696864
1319.025391;0.630496
1319.608398;0.647088
1320.490356;0.696864
1320.780273;0.530944
1321.855103;0.829600
1322.341309;0.613904
1322.923340;0.647088
1323.705322;0.630496
1323.898926;0.365024
1325.168457;0.995520
1325.555908;0.663680
1326.141357;0.530944
1327.018188;0.796416
1327.310913;0.447984
1328.288086;0.630496
1328.677612;0.663680
1329.358521;0.696864
1330.042725;0.680272
1331.016479;0.696864
1331.407715;0.713456
1332.576294;0.713456
1332.968262;0.680272
1333.846313;0.680272
1334.236572;0.663680
1334.818848;0.630496
1335.794434;0.680272
1336.088013;0.630496
1336.768433;0.647088
1337.453491;0.713456
1338.427002;0.962336
1339.694458;1.061888
1340.280640;0.763232
1340.962646;0.746640
1341.840576;0.647088
1342.326172;0.663680
1343.011108;0.713456
1343.691040;0.647088
1344.178589;0.464576
1344.962891;0.530944
1345.448120;0.763232
1346.619873;1.128256
1347.593506;0.613904
1347.888306;0.630496
1348.568970;0.713456
1349.250854;0.713456
1350.225586;0.713456
1351.113403;0.895968
1351.589966;0.730048
1352.273438;0.713456
1353.248169;0.696864
1353.733765;0.696864
1354.416260;0.696864
1355.297852;0.663680
1355.686401;0.663680
1356.661743;0.647088
1357.048828;0.647088
1357.635864;0.630496
1358.417847;0.613904
1358.901367;0.613904
1359.486938;0.630496
1360.364990;0.663680
1360.656372;0.481168
1361.733032;0.730048
1362.119263;0.696864
1362.899292;0.813008
1364.071777;0.846192
1365.144409;1.095072
1365.825928;0.829600
1366.898926;0.829600
1367.387329;0.763232
1367.971069;0.746640
1369.141113;0.796416
1369.626465;0.813008
1371.091431;1.045296
1371.381592;0.696864
1372.064087;0.663680
1372.945068;0.680272
1373.333740;0.680272
1374.308960;0.680272
1374.794434;0.696864
1375.479370;0.730048
1376.159180;0.630496
1376.746338;0.597312
1377.720459;0.663680
1378.017090;0.647088
1378.989990;0.647088
1379.283813;0.647088
1379.961792;0.630496
1381.034668;0.647088
1381.331299;0.663680
1381.913940;0.663680
1382.793945;0.680272
1383.279419;0.696864
1384.253906;0.730048
1384.836914;0.763232
1385.522095;0.746640
1386.304688;0.713456
1387.080566;0.713456
1387.665161;0.696864
1389.324585;1.509872
1390.005249;0.846192
1390.786865;0.796416
1391.761230;0.779824
1392.832764;0.813008
1393.222534;0.763232
1394.004028;0.796416
1395.074463;1.045296
1395.759033;0.763232
1396.929321;0.730048
1397.319946;0.713456
1398.197510;0.597312
1398.487061;0.647088
1400.047119;1.111664
1400.634155;0.879376
1401.705200;0.813008
1402.096802;0.796416
1402.972168;0.846192
1403.947632;0.746640
1404.434692;0.730048
1405.606079;0.862784
1406.387329;0.779824
1406.876709;0.779824
1407.654419;0.779824
1408.726318;0.796416
1409.117920;0.746640
1409.895142;0.696864
1410.775024;0.680272
1411.555176;0.696864
1411.844849;0.663680
1412.917236;0.647088
1413.211914;0.630496
1414.186279;0.630496
1414.674194;0.647088
1415.160645;0.680272
1416.136963;0.746640
1416.427368;0.514352
1417.209229;0.464576
1417.695312;0.829600
1418.379517;0.647088
1419.354858;0.846192
1419.550659;0.149328
1420.620728;0.929152
1420.916992;0.696864
1421.792114;0.829600
1422.765625;0.680272
1423.157715;0.680272
1423.837524;0.647088
1424.619263;0.630496
1425.007568;0.547536
1425.592651;0.597312
1426.764526;1.012112
1427.252686;0.696864
1428.226318;0.647088
1428.517578;0.547536
1429.496094;0.613904
1429.885864;0.597312
1430.858154;0.730048
1431.347412;0.945744
1432.127197;0.796416
1433.103516;0.763232
1433.685791;0.713456
1434.565186;0.713456
1435.539795;1.161440
1436.610229;0.730048
1436.904907;0.680272
1437.684937;0.730048
1438.660034;0.763232
1439.147339;0.730048
1439.929932;0.730048
1440.608643;0.746640
1441.682373;0.779824
1441.973267;0.530944
1442.559692;0.663680
1443.438843;0.846192
1444.216187;0.730048
1445.190552;0.663680
1445.487793;0.580720
1445.973389;0.580720
1446.851318;0.613904
1447.628906;0.613904
1447.924438;0.663680
1448.993774;1.028704
1449.675537;0.713456
1450.650513;0.547536
1450.944702;0.530944
1451.432617;0.663680
1452.406982;0.746640
1452.699463;0.547536
1453.578491;0.580720
1454.065063;0.813008
1455.625732;1.377136
1455.917480;0.481168
1456.989258;0.613904
1457.282837;0.580720
1457.768555;0.613904
1458.747681;0.713456
1459.232666;0.779824
1459.913574;0.680272
1460.987793;0.680272
1461.378296;0.779824
1462.353149;0.746640
1463.913696;1.460096
1464.301392;0.431392
1464.887573;0.862784
1465.568359;0.730048
1466.349243;0.746640
1467.328125;0.713456
1467.812988;0.746640
1468.590820;0.730048
1469.567261;0.746640
1470.053467;0.713456
1471.129639;0.730048
1471.520264;0.730048
1472.200439;0.746640
1473.075928;0.580720
1473.468872;0.696864
1474.833130;1.128256
1475.611572;0.696864
1476.005493;0.680272
1476.683838;0.663680
1477.661621;0.647088
1477.955566;0.630496
1478.633911;0.663680
1479.218750;0.647088
1480.196655;0.647088
1480.585693;0.663680
1481.465698;0.663680
1481.948608;0.663680
1482.535645;0.680272
1483.608398;0.630496
1483.903564;0.647088
1484.485718;0.630496
1485.166138;0.647088
1485.751221;0.630496
1486.338135;0.613904
1487.215088;0.597312
1488.481201;1.178032
1488.874023;0.730048
1489.553833;0.630496
1490.441650;0.663680
1490.823853;0.663680
1491.800537;0.696864
1492.579102;0.647088
1492.966675;0.746640
1493.651367;0.713456
1494.429443;0.730048
1495.308960;0.696864
1495.796631;0.730048
1496.379272;0.580720
1497.745972;0.978928
1498.138306;0.696864
1498.817139;0.730048
1499.499023;0.696864
1500.475708;0.680272
1500.863892;0.647088
1501.451416;0.663680
1502.133301;0.647088
1503.011108;0.630496
1503.791992;0.647088
1504.180298;0.647088
1504.668579;0.630496
1505.349609;0.630496
1506.130371;0.630496
1506.616577;0.630496
1507.201660;0.630496
1507.884033;0.647088
1508.468994;0.630496
1509.445801;0.647088
1509.836182;0.647088
1510.811035;0.663680
1511.103882;0.647088
1511.980225;0.663680
1512.957886;0.929152
1513.443970;0.696864
1514.319214;0.647088
1514.711060;0.680272
1515.393921;0.696864
1516.171753;0.746640
1516.856323;0.713456
1517.734497;0.663680
1518.219360;0.663680
1518.901733;0.663680
1519.781860;0.680272
1520.269165;0.713456
1520.951172;0.730048
1521.730103;0.713456
1522.708740;0.746640
1523.193970;0.730048
1523.875244;0.713456
1524.655029;0.713456
1525.436401;0.597312
1525.924438;0.746640
1526.800293;0.597312
1527.091675;0.497760
1527.677490;0.613904
1528.361450;0.730048
1529.042358;0.663680
1529.529541;0.447984
1530.410522;0.663680
1530.896973;0.763232
1531.872803;0.796416
1532.552124;0.846192
1533.723267;0.945744
1533.723999;0.049776
1534.700928;0.929152
1535.578857;0.895968
1536.257812;0.846192
1537.136353;0.746640
1537.721680;0.730048
1538.402832;0.696864
1539.280029;0.663680
1539.767456;0.663680
1540.354248;0.613904
1541.035522;0.663680
1542.014648;0.746640
1542.303589;0.530944
1542.889282;0.597312
1543.569702;0.647088
1544.253418;0.663680
1544.934814;0.663680
1545.521729;0.647088
1546.202515;0.663680
1546.884644;0.680272
1547.957764;0.680272
1548.254761;0.680272
1549.227539;0.663680
1549.619263;0.647088
1550.592163;0.613904
1550.982788;0.763232
1551.664551;0.763232
1552.738037;0.730048
1553.125244;0.696864
1554.492676;0.929152
1554.883545;0.663680
1555.760010;0.630496
1556.054565;0.713456
1557.124878;0.713456
1557.418335;0.580720
1558.389893;0.663680
1559.267944;0.746640
1559.563354;0.663680
1560.242676;0.796416
1561.414062;0.813008
1561.806274;0.696864
1562.389526;0.647088
1562.973389;0.564128
1563.560181;0.630496
1564.438477;0.647088
1564.924072;0.647088
1565.607178;0.696864
1566.287964;0.696864
1567.072510;0.696864
1568.042603;0.680272
1568.339966;0.680272
1569.019409;0.696864
1569.993042;0.680272
1571.064941;1.343952
1572.139771;0.713456
1572.438110;0.647088
1573.408325;0.763232
1574.089722;0.862784
1575.066772;0.713456
1575.845093;0.696864
1576.234863;0.613904
1576.721069;0.647088
1577.306030;0.564128
1578.090088;0.580720
1578.672119;0.730048
1579.549072;0.696864
1580.035889;0.696864
1580.722656;0.680272
1581.890625;0.779824
1582.184448;0.663680
1582.767456;0.680272
1583.839966;0.680272
1584.229004;0.613904
1584.715332;0.630496
1585.300537;0.564128
1585.984985;0.713456
1586.767578;0.663680
1587.347900;0.630496
1587.935059;0.630496
1588.615601;0.663680
1589.300171;0.680272
1590.332397;0.846192
1591.165771;0.796416
1591.638184;0.746640
1592.518311;0.696864
1593.297241;0.895968
1594.387939;0.779824
1594.855347;0.779824
1595.738770;0.730048
1596.229004;0.696864
1596.903442;0.663680
1597.878906;0.597312
1598.171509;0.613904
1598.758057;0.613904
1599.714355;0.530944
1599.926758;0.663680
1600.829102;0.481168
1601.388550;0.630496
1601.698242;0.630496
1602.362915;0.663680
1603.145874;0.730048
1604.121094;0.779824
1604.606689;0.763232
1605.483521;0.829600
1606.500610;0.763232
1607.056641;0.829600
1608.116821;0.730048
1608.799805;1.028704
1609.583130;0.730048
1610.261841;0.763232
1611.042236;0.730048
1611.920898;0.696864
1612.406372;0.663680
1613.189209;0.746640
1613.772095;0.663680
1614.943848;0.713456
1615.141724;0.647088
1615.624146;0.481168
1616.697144;0.613904
1616.990967;0.696864
1617.580688;0.647088
1618.549927;0.779824
1618.940674;0.514352
1619.720337;0.464576
1620.133911;0.746640
1621.182617;1.061888
1622.350830;0.829600
1623.229248;0.746640
1623.620117;0.829600
1624.302002;0.763232
1625.082397;0.746640
1625.864258;0.796416
1626.738892;0.813008
1627.617554;0.912560
1628.398193;0.779824
1629.082764;0.365024
1629.276123;0.331840
1629.372925;0.082960
1629.859741;0.713456
1631.029175;0.796416
1631.516479;0.829600
1632.298096;0.796416
1633.173218;0.829600
1634.247925;0.696864
1634.640747;0.763232
1635.221802;0.597312
1636.325684;0.763232
1636.781494;0.813008
1637.875122;0.879376
1639.027100;0.962336
1639.806885;0.796416
1640.194702;0.763232
1641.269165;0.846192
1642.241455;0.829600
1642.729614;0.862784
1643.609009;0.862784
1644.484253;0.895968
1645.361816;0.895968
1646.343018;0.846192
1647.020508;0.813008
1648.097656;0.862784
1648.678345;0.713456
1649.752197;0.879376
1650.529297;1.012112
1651.515503;0.829600
1652.286133;0.962336
1653.553833;0.879376
1654.042236;0.813008
1655.014771;0.995520
1656.086792;1.111664
1656.771973;0.713456
1657.453735;0.597312
1658.721191;0.895968
1659.208740;0.912560
1660.282349;0.846192
1660.964600;0.929152
1662.132812;0.696864
1662.232178;0.282064
1662.718628;0.763232
1663.303833;0.597312
1664.084839;0.547536
1664.569946;0.696864
1665.644775;0.779824
1666.226929;0.846192
1667.494751;0.829600
1667.788818;0.779824
1668.664429;0.796416
1669.446777;0.813008
1670.614380;0.813008
1671.006348;0.796416
1671.786377;0.746640
1672.664307;0.680272
1673.149780;0.630496
1673.932617;0.680272
1674.416870;0.647088
1675.199097;0.663680
1676.074829;0.680272
1676.465698;0.663680
1677.148682;0.696864
1678.124146;0.647088
1678.418945;0.613904
1679.392944;0.846192
1679.974487;0.713456
1681.050049;0.746640
1681.633911;0.962336
1682.901733;0.779824
1683.389648;0.696864
1684.169189;0.713456
1684.752075;0.663680
1685.434570;0.862784
1686.607422;0.846192
1687.094727;0.862784
1687.972046;0.680272
1688.554810;0.796416
1689.725220;0.779824
1690.116699;0.779824
1690.797485;0.680272
1691.774658;0.580720
1692.164307;0.746640
1693.140625;0.746640
1693.627563;0.763232
1694.504517;0.879376
1695.480225;0.763232
1696.064453;0.746640
1696.746948;0.730048
1697.526978;0.779824
1698.306763;0.564128
1699.089600;0.763232
1699.477051;0.597312
1700.356567;0.564128
1700.843384;0.796416
1701.817139;0.730048
1702.302490;0.713456
1703.378174;0.730048
1703.864624;0.846192
1704.645020;0.796416
1705.620361;0.763232
1706.499023;0.829600
1707.080200;0.846192
1707.957886;0.813008
1708.936768;0.813008
1709.712891;0.978928
1710.690063;0.796416
1711.272583;0.763232
1712.446777;1.194624
1712.833496;0.315248
1714.685791;1.675792
1715.370483;0.564128
1715.664795;0.680272
1716.832397;1.144848
1717.514771;0.647088
1718.347168;0.597312
1718.687622;0.580720
1719.661011;0.696864
1720.437866;1.045296
1721.512695;0.895968
1722.097412;0.829600
1723.362793;1.178032
1724.535645;1.045296
1725.118530;0.713456
1725.898560;0.829600
1726.777710;0.630496
1727.555542;1.012112
1728.437012;0.829600
1729.214600;0.829600
1729.995117;0.763232
1730.967896;0.082960
1731.945557;0.796416
1732.530029;0.746640
1733.505249;0.779824
1734.381104;0.813008
1734.870605;0.813008
1735.745605;0.829600
1736.917847;0.713456
1737.502686;0.481168
1737.990234;1.111664
1738.770264;0.763232
1739.454834;0.696864
1740.426147;0.564128
1740.720337;0.647088
1741.305298;0.647088
1742.379395;0.713456
1742.765747;0.730048
1743.743652;0.763232
1744.327759;0.813008
1745.399292;0.763232
1745.887817;0.746640
1746.470947;0.597312
1747.543701;0.796416
1747.933472;0.680272
1748.912109;0.713456
1749.883545;1.178032
1750.956787;0.862784
1751.250000;0.348432
1752.225952;0.730048
1752.515869;0.680272
1753.297852;0.829600
1754.271362;0.796416
1755.050903;0.912560
1755.930542;0.763232
1756.514771;0.763232
1757.686523;0.978928
1758.368774;0.862784
1759.343140;0.713456
1759.926147;0.796416
1761.001831;0.929152
1761.390259;0.497760
1762.266479;0.895968
1763.242798;0.746640
1763.728516;0.746640
1764.803467;0.813008
1765.290894;0.796416
1766.362183;0.763232
1766.849243;0.779824
1768.020996;0.945744
1768.605957;0.763232
1769.383911;0.763232
1770.360718;0.730048
1770.750854;0.696864
1771.628662;0.647088
1772.018433;0.613904
1772.701538;0.696864
1773.576782;0.746640
1774.163452;0.730048
1774.747070;0.514352
1775.627930;0.929152
1776.413696;0.696864
1777.378784;1.012112
1778.260864;0.813008
1778.941040;0.796416
1780.014038;0.879376
1780.696899;0.846192
1781.183594;0.481168
1781.868286;0.481168
1782.548462;0.912560
1783.716431;0.713456
1784.302124;1.012112
1785.277344;0.995520
1786.544312;1.227808
1787.521118;0.796416
1788.115967;0.763232
1789.078979;0.613904
1789.566650;0.912560
1790.641357;0.862784
1791.420654;0.945744
1792.296143;0.663680
1792.783569;0.730048
1793.660889;0.597312
1793.952637;0.298656
1793.955688;0.182512
1794.538696;0.663680
1795.613525;0.813008
1796.098755;0.763232
1796.779419;0.630496
1797.851685;0.713456
1798.729614;0.846192
1799.217285;0.862784
1799.996582;0.779824
1800.971680;0.730048
1801.361816;0.647088
1801.947266;0.597312
1802.825684;0.746640
1803.506836;0.796416
1804.483887;0.846192
1805.261841;0.879376
1806.434204;0.879376
1807.309692;0.846192
1807.894409;0.912560
1808.676880;0.862784
1809.555298;0.696864
1810.236938;0.796416
1811.512817;0.879376
1812.087036;0.995520
1813.065308;0.945744
1814.330078;1.260992
1815.014160;0.464576
1815.304810;0.580720
1816.084595;0.779824
1816.864502;0.763232
1817.644531;0.730048
1818.328979;0.713456
1819.107788;0.813008
1820.183838;0.796416
1820.767334;0.862784
1821.644165;0.879376
1822.716431;1.028704
1823.691406;0.746640
1824.566772;1.061888
1825.445435;0.945744
1826.322876;0.846192
1827.199097;0.862784
1828.078613;0.862784
1829.155029;0.680272
1829.444458;0.647088
1830.320923;0.978928
1831.783081;1.045296
1832.560303;0.846192
1833.244263;0.829600
1834.053955;0.846192
1835.098633;0.796416
1835.520508;0.763232
1836.170532;0.713456
1836.956299;0.730048
1838.119507;0.730048
1838.607178;0.713456
1839.390381;0.680272
1839.780396;0.713456
1840.948486;0.730048
1841.260498;0.696864
1841.824829;0.663680
1842.707642;0.663680
1843.288208;0.680272
1843.873169;0.680272
1844.567627;0.680272
1845.238770;0.713456
1846.164062;0.647088
1846.700806;0.730048
1847.774414;0.763232
1847.969482;0.597312
1848.654053;0.647088
1849.529297;0.680272
1850.223633;0.447984
1851.192383;0.613904
1851.674927;0.763232
1852.453247;0.746640
1853.136230;0.414800
1853.334106;0.431392
1854.207886;0.713456
1854.694946;0.713456
1855.388672;0.713456
1856.258179;0.713456
1856.358276;0.282064
1856.645630;0.215696
1857.132690;0.514352
1857.621460;0.497760
1858.306763;0.481168
1858.594971;0.431392
1859.281616;0.713456
1860.059448;0.464576
1860.545654;0.497760
1860.937378;0.713456
1861.911865;0.696864
1862.986084;0.978928
1863.484375;0.647088
1863.860962;0.564128
1864.741333;0.597312
1865.810547;0.713456
1866.395630;0.663680
1867.275269;0.846192
1867.860107;0.580720
1868.834717;0.746640
1869.030273;0.431392
1870.003418;0.746640
1871.076538;0.945744
1871.466797;0.730048
1871.854980;0.398208
1872.733765;0.862784
