timestamp;x;y;z
1.329988;0.245117;0.864746;0.459473
1.330457;0.243896;0.861816;0.459473
1.330832;0.242920;0.862793;0.459473
1.331193;0.243896;0.863770;0.461182
1.427220;0.243652;0.863770;0.460693
1.428090;0.244873;0.862549;0.464355
1.428468;0.246826;0.861084;0.463135
1.428828;0.245117;0.861572;0.461670
1.526061;0.244141;0.862549;0.459961
1.526537;0.242676;0.861816;0.459229
1.526920;0.244629;0.863770;0.460693
1.527343;0.245361;0.862793;0.462646
1.768692;0.246094;0.862549;0.463867
1.769214;0.244141;0.863281;0.460449
1.769596;0.246338;0.862549;0.461426
1.769963;0.244385;0.863770;0.460693
1.771334;0.245850;0.862549;0.463135
1.771700;0.242432;0.862793;0.466553
1.772053;0.247070;0.862793;0.463623
1.772409;0.247559;0.856689;0.460693
1.880929;0.249512;0.858398;0.459717
1.881384;0.247314;0.860107;0.465576
1.881756;0.245605;0.859619;0.462646
1.882114;0.245605;0.863281;0.464844
2.012679;0.245850;0.860596;0.464844
2.013193;0.247559;0.860596;0.462891
2.013564;0.247314;0.859131;0.458496
2.013926;0.250244;0.858398;0.458984
2.124977;0.250000;0.857422;0.463379
2.125416;0.247559;0.858154;0.463135
2.125602;0.247803;0.859619;0.464844
2.125845;0.248535;0.859375;0.462646
2.255916;0.250244;0.858154;0.462646
2.256505;0.249512;0.861084;0.462891
2.256887;0.248291;0.857422;0.460938
2.257256;0.248779;0.861328;0.466064
2.406021;0.250244;0.862793;0.457764
2.406480;0.248535;0.856689;0.457764
2.406851;0.250244;0.860352;0.462891
2.407208;0.247314;0.859619;0.466797
2.518428;0.250732;0.860352;0.469727
2.518874;0.252197;0.857422;0.461426
2.519447;0.252930;0.860840;0.463867
2.519811;0.251953;0.861572;0.463623
2.649634;0.252441;0.858887;0.460938
2.650094;0.254883;0.855469;0.462646
2.650578;0.253418;0.857910;0.464355
2.650945;0.254639;0.856445;0.462891
2.762886;0.252686;0.859863;0.464600
2.763391;0.252930;0.857666;0.462158
2.763772;0.256104;0.853760;0.464355
2.764134;0.256348;0.857666;0.461426
2.893489;0.256836;0.854004;0.464600
2.893945;0.252686;0.859375;0.464111
2.894322;0.256348;0.853760;0.462402
2.895097;0.257080;0.853760;0.461670
3.025299;0.254883;0.854004;0.465576
3.025787;0.253418;0.856201;0.466553
3.026165;0.253418;0.855957;0.468994
3.026529;0.255615;0.853271;0.468994
3.137767;0.256348;0.854004;0.463867
3.138250;0.256104;0.859863;0.461670
3.138625;0.249512;0.860352;0.458252
3.138988;0.247070;0.859375;0.459717
3.268429;0.250000;0.860840;0.463135
3.269039;0.248291;0.858887;0.465576
3.269418;0.249756;0.858398;0.467773
3.269780;0.247070;0.857666;0.465820
3.489894;0.252686;0.857422;0.463867
3.490620;0.253906;0.856934;0.463623
3.491003;0.254395;0.853271;0.468994
3.491370;0.252686;0.857422;0.468506
3.587541;0.252930;0.857910;0.461426
3.588489;0.250732;0.856934;0.458984
3.588877;0.247559;0.863281;0.457275
3.589246;0.245117;0.866943;0.456543
3.685738;0.243896;0.861328;0.457520
3.686145;0.246094;0.862793;0.462158
3.686512;0.245361;0.863037;0.461426
3.686876;0.246826;0.863281;0.463867
3.782288;0.248047;0.859131;0.461670
3.782743;0.249512;0.858398;0.461182
3.783225;0.251709;0.858398;0.460938
3.783591;0.247559;0.861084;0.460938
3.977339;0.241455;0.863525;0.458984
3.977786;0.240479;0.864014;0.456299
3.980544;0.239258;0.866943;0.458008
3.980937;0.242188;0.868164;0.459961
4.075178;0.242432;0.862793;0.459717
4.075809;0.244873;0.863281;0.462402
4.076191;0.246338;0.865479;0.456055
4.076554;0.241455;0.863770;0.456299
4.172264;0.242188;0.864746;0.454834
4.172740;0.240479;0.864014;0.459473
4.173115;0.242432;0.862305;0.461182
4.173477;0.242188;0.862061;0.462158
4.270698;0.242676;0.862305;0.463623
4.271099;0.243408;0.864502;0.460205
4.271469;0.243164;0.864746;0.457275
4.271830;0.243408;0.864502;0.455811
4.855374;0.242188;0.864746;0.459961
4.856547;0.241943;0.862549;0.458008
4.856931;0.241699;0.863037;0.460449
4.857358;0.241943;0.862549;0.457275
4.952635;0.241211;0.863281;0.460449
4.953394;0.242432;0.864746;0.457764
4.953786;0.243652;0.864502;0.459229
4.954361;0.246338;0.861084;0.464355
4.956452;0.246094;0.863770;0.460449
4.956825;0.246338;0.864014;0.456543
4.957182;0.244629;0.863525;0.456543
4.957533;0.244873;0.865234;0.459473
5.050219;0.245605;0.863037;0.463867
5.050986;0.244629;0.861084;0.463867
5.051509;0.246338;0.860596;0.464111
5.051880;0.246338;0.862305;0.464844
5.146981;0.248291;0.859863;0.460205
5.147949;0.246582;0.860840;0.459473
5.148464;0.248779;0.859863;0.460693
5.148982;0.249023;0.860840;0.461914
5.149970;0.247314;0.860352;0.461182
5.150329;0.249023;0.858398;0.462402
5.150679;0.250244;0.859375;0.462891
5.151031;0.251953;0.856934;0.460938
5.151923;0.250977;0.862305;0.462891
5.152283;0.250732;0.858154;0.462646
5.152636;0.249512;0.859131;0.464844
5.152989;0.252441;0.859619;0.459229
5.348747;0.250244;0.857422;0.456299
5.349153;0.249756;0.860840;0.460693
5.349519;0.251953;0.862305;0.463867
5.349877;0.251221;0.856689;0.462891
5.440339;0.251709;0.858887;0.462891
5.440850;0.252441;0.859375;0.462402
5.441302;0.252930;0.857910;0.459717
5.441665;0.251953;0.858398;0.460449
5.537408;0.252197;0.859375;0.462402
5.537887;0.252441;0.859863;0.462646
5.538258;0.251465;0.858398;0.461182
5.539828;0.251709;0.861084;0.464355
5.732298;0.251709;0.859375;0.462158
5.764904;0.253906;0.857178;0.460693
5.765445;0.252930;0.862549;0.462402
5.765812;0.250732;0.856689;0.463867
5.831214;0.250977;0.862305;0.464111
5.831681;0.252930;0.858887;0.459961
5.832103;0.250732;0.856934;0.457275
5.832355;0.249512;0.861084;0.460205
5.927070;0.248291;0.859863;0.464844
5.927229;0.247314;0.858887;0.464355
5.927280;0.249512;0.858398;0.463623
5.927384;0.250244;0.859375;0.462646
6.121984;0.250244;0.859863;0.459473
6.122109;0.249023;0.858887;0.459961
6.122190;0.249268;0.858398;0.459961
6.122234;0.249756;0.859375;0.461670
6.219200;0.247803;0.860107;0.463135
6.219367;0.249023;0.859863;0.462891
6.219477;0.249756;0.860107;0.462402
6.219588;0.248779;0.857178;0.458496
6.316917;0.246582;0.863770;0.459473
6.317074;0.245605;0.860840;0.464600
6.317188;0.248291;0.861572;0.461914
6.317274;0.247803;0.858643;0.458008
6.512767;0.246338;0.858887;0.457031
6.512934;0.245361;0.865967;0.456299
6.513113;0.242188;0.864746;0.459473
6.513249;0.244873;0.863770;0.462158
6.609988;0.246094;0.862549;0.465088
6.610609;0.248535;0.858154;0.463379
6.610992;0.245605;0.861084;0.459717
6.611357;0.245117;0.864258;0.456787
6.707406;0.243164;0.864014;0.455078
6.707896;0.242920;0.865479;0.458496
6.708273;0.242676;0.864502;0.458252
6.708648;0.244141;0.866455;0.457031
6.805419;0.241699;0.862549;0.458252
6.805893;0.241943;0.864990;0.457031
6.806272;0.241211;0.864746;0.457520
6.806636;0.243164;0.863281;0.460938
7.013012;0.244385;0.865234;0.456543
7.013558;0.243408;0.863281;0.457031
7.013940;0.242188;0.862549;0.457275
7.014310;0.243164;0.865723;0.455322
7.100757;0.241699;0.863770;0.457520
7.100839;0.240479;0.864990;0.457275
7.101049;0.241455;0.861328;0.462158
7.101519;0.243652;0.865479;0.459717
7.194249;0.242920;0.864502;0.458496
7.194345;0.242432;0.864014;0.456543
7.194410;0.241943;0.864014;0.457031
7.194435;0.241455;0.866211;0.458984
7.390083;0.240967;0.863037;0.458496
7.390227;0.244385;0.865234;0.457764
7.390315;0.245605;0.862793;0.462646
7.390399;0.247070;0.860107;0.459473
7.486909;0.244385;0.863037;0.460449
7.487014;0.243896;0.861572;0.464600
7.487102;0.242920;0.866211;0.459717
7.487189;0.246338;0.863037;0.457520
7.681789;0.244385;0.859863;0.458008
7.681976;0.245361;0.863037;0.458740
7.682129;0.246582;0.862305;0.461426
7.682167;0.245850;0.862793;0.463135
7.779880;0.247314;0.860840;0.463135
7.780073;0.249268;0.860352;0.462891
7.780162;0.248291;0.859619;0.460449
7.780284;0.248291;0.860352;0.459717
7.877371;0.248535;0.858643;0.459717
7.877779;0.249268;0.860107;0.460938
7.878159;0.249268;0.861084;0.462402
7.878303;0.251221;0.862549;0.463379
7.974979;0.252441;0.864258;0.474121
7.975286;0.249023;0.858398;0.466553
7.975424;0.249756;0.852051;0.452881
7.975604;0.251709;0.849854;0.456543
8.072731;0.252441;0.863281;0.464600
8.072891;0.253906;0.854004;0.459717
8.073081;0.250732;0.854004;0.459717
8.073188;0.252686;0.860596;0.463623
8.267168;0.249268;0.859863;0.465088
8.267290;0.250977;0.859863;0.466797
8.267348;0.253174;0.858643;0.465576
8.267401;0.255127;0.854736;0.463867
8.365068;0.255127;0.856445;0.463135
8.365376;0.253418;0.859863;0.463135
8.365521;0.252441;0.858398;0.461182
8.365711;0.250488;0.856689;0.462158
8.466041;0.248779;0.859131;0.466064
8.466451;0.250488;0.858398;0.464111
8.466823;0.252441;0.856934;0.460449
8.467187;0.253418;0.862305;0.462646
9.077209;0.250977;0.857422;0.462646
9.077243;0.250732;0.861084;0.467041
9.077265;0.253906;0.857910;0.459473
9.077286;0.250732;0.855469;0.459961
9.159701;0.250732;0.859619;0.461426
9.159724;0.247803;0.859131;0.462402
9.159750;0.248291;0.859131;0.464600
9.159769;0.250244;0.859619;0.463379
9.338686;0.249268;0.858154;0.465088
9.338730;0.250977;0.860596;0.463867
9.338751;0.250488;0.860596;0.461914
9.338770;0.249756;0.859131;0.459717
9.436706;0.250000;0.858887;0.461670
9.436847;0.246826;0.858398;0.462891
9.436870;0.248779;0.860352;0.460938
9.436889;0.248291;0.858398;0.460693
9.438536;0.250488;0.861572;0.462158
9.438567;0.248779;0.859131;0.461182
9.438587;0.248535;0.857910;0.461670
9.438606;0.247803;0.862061;0.460449
9.534287;0.245117;0.860107;0.458008
9.534376;0.246338;0.860840;0.458496
9.534418;0.244385;0.863037;0.460449
9.534456;0.246582;0.860107;0.460938
9.632392;0.245850;0.860596;0.460938
9.632488;0.244873;0.860352;0.460205
9.632764;0.245361;0.863037;0.462891
9.632836;0.244141;0.864014;0.458984
9.730332;0.244385;0.861572;0.459961
9.730505;0.244141;0.862793;0.459473
9.730643;0.244629;0.862549;0.459961
9.730811;0.240967;0.862793;0.458740
9.731460;0.242432;0.864502;0.457764
9.731594;0.240234;0.863770;0.460205
9.731680;0.244141;0.866211;0.459961
9.731759;0.246094;0.860840;0.463135
9.732708;0.245117;0.862793;0.462891
9.732984;0.243652;0.864502;0.458984
9.733096;0.242188;0.862305;0.458008
9.733185;0.242920;0.863281;0.457031
9.828342;0.242920;0.864502;0.460205
9.828470;0.245605;0.861084;0.462402
9.828555;0.248047;0.859863;0.461670
9.828635;0.247803;0.859619;0.462402
10.412506;0.247070;0.861816;0.461914
10.412760;0.245361;0.863037;0.457520
10.412833;0.245361;0.862549;0.458740
10.412887;0.243408;0.863525;0.458252
10.509968;0.246582;0.862061;0.462402
10.510120;0.247070;0.859619;0.460693
10.510216;0.249023;0.857666;0.463135
10.510305;0.251221;0.859863;0.462646
10.607748;0.249512;0.860596;0.460449
10.607880;0.249756;0.858154;0.462891
10.607971;0.249023;0.861084;0.465332
10.608057;0.252197;0.857666;0.459717
10.704209;0.250488;0.855957;0.458496
10.704263;0.250000;0.858398;0.460205
10.704287;0.249756;0.860107;0.464844
10.704306;0.251953;0.857422;0.463623
10.801657;0.251953;0.858154;0.463135
10.801709;0.254395;0.859131;0.462402
10.801732;0.255127;0.855713;0.462402
10.801753;0.252441;0.858398;0.460205
10.802826;0.254150;0.858154;0.460938
10.802857;0.252930;0.857422;0.461426
10.802878;0.252686;0.857910;0.461670
10.802899;0.254883;0.856689;0.462158
10.899604;0.257568;0.854492;0.464600
10.899649;0.255859;0.856689;0.461182
10.899679;0.254639;0.854736;0.464600
10.899708;0.253418;0.856934;0.463379
10.901443;0.255859;0.856201;0.462158
10.901488;0.256348;0.852783;0.461914
10.901518;0.256348;0.854492;0.462891
10.901546;0.252686;0.857666;0.463379
10.996739;0.252441;0.855957;0.467041
10.996811;0.252930;0.857178;0.465332
10.996845;0.253662;0.856445;0.465088
10.996874;0.255615;0.856445;0.461670
11.094658;0.253906;0.857666;0.461914
11.094761;0.254150;0.857178;0.462402
11.094822;0.251465;0.859619;0.463623
11.094878;0.250244;0.860596;0.464844
11.289604;0.252197;0.860352;0.464111
11.289681;0.254150;0.856445;0.462402
11.289724;0.252930;0.860107;0.458740
11.289762;0.252686;0.863037;0.463379
11.387427;0.253906;0.855957;0.464600
11.387578;0.253906;0.858398;0.464111
11.387672;0.247559;0.861084;0.467529
11.387758;0.247559;0.862305;0.456787
11.485587;0.252441;0.861572;0.460205
11.485708;0.260498;0.850586;0.461914
11.485799;0.256836;0.854492;0.466797
11.485884;0.250000;0.858643;0.464600
12.072194;0.249268;0.859619;0.461914
12.072334;0.251221;0.860596;0.463135
12.072428;0.254150;0.855957;0.464111
12.072513;0.257080;0.853027;0.467773
12.073903;0.256104;0.854248;0.465576
12.074068;0.255859;0.855469;0.465332
12.074167;0.253906;0.858643;0.461914
12.074253;0.253174;0.858398;0.461914
12.169491;0.253662;0.862061;0.464111
12.169876;0.257812;0.854004;0.469482
12.170356;0.255859;0.854980;0.467529
12.170474;0.259277;0.854492;0.461426
12.264935;0.258301;0.854004;0.464111
12.265067;0.254395;0.854492;0.466553
12.265153;0.254395;0.854492;0.468506
12.265353;0.253418;0.853516;0.468018
12.364028;0.253906;0.854248;0.468262
12.364151;0.254883;0.855957;0.465820
12.364244;0.255859;0.854492;0.464111
12.364331;0.258301;0.854004;0.463135
12.460571;0.257812;0.854248;0.465576
12.461053;0.258301;0.855225;0.465332
12.461184;0.255127;0.855469;0.466797
12.461283;0.257568;0.854736;0.466553
12.461390;0.258301;0.853516;0.468018
12.461479;0.258301;0.856689;0.463867
12.461564;0.258057;0.856689;0.462646
12.461664;0.256836;0.855469;0.468018
12.582264;0.261719;0.854736;0.465088
12.582344;0.263916;0.846924;0.463623
12.582372;0.259521;0.852295;0.464844
12.582397;0.257812;0.856445;0.467529
12.654847;0.257568;0.851074;0.470215
12.654895;0.259766;0.852539;0.469238
12.654929;0.262207;0.853760;0.469971
12.654958;0.261475;0.852539;0.467285
12.753216;0.261475;0.851807;0.467285
12.753450;0.264404;0.848389;0.465088
12.753531;0.262207;0.850342;0.463379
12.753593;0.262451;0.847168;0.464600
12.851201;0.256592;0.852783;0.467285
12.851384;0.255615;0.854492;0.466309
12.851468;0.256592;0.856445;0.464111
12.851548;0.258301;0.860352;0.464111
13.436028;0.260254;0.859375;0.464355
13.436174;0.257080;0.860107;0.474609
13.436267;0.256836;0.859619;0.466309
13.436352;0.258301;0.853027;0.463623
13.532981;0.259766;0.854736;0.465088
13.533127;0.259277;0.854492;0.463867
13.533218;0.253662;0.850098;0.464600
13.533302;0.255371;0.849609;0.469727
13.631002;0.261963;0.851562;0.470947
13.631117;0.267334;0.848633;0.467773
13.631209;0.267822;0.852539;0.465820
13.631297;0.264404;0.852051;0.467529
13.728411;0.262695;0.849609;0.468506
13.728558;0.257324;0.852539;0.471924
13.728653;0.254883;0.857666;0.472412
13.728737;0.261475;0.854004;0.470703
13.730919;0.266357;0.845459;0.464600
13.731017;0.269287;0.843506;0.463135
13.731101;0.263184;0.850830;0.467041
13.731185;0.260254;0.849854;0.468994
13.827115;0.260254;0.852051;0.476318
13.827237;0.263428;0.850342;0.472656
13.827325;0.263916;0.843750;0.472656
13.827410;0.264893;0.841064;0.469971
13.827492;0.265869;0.843506;0.471680
13.827575;0.264160;0.851074;0.466553
13.827662;0.256104;0.861084;0.459717
13.827744;0.250000;0.859863;0.460449
13.924678;0.249756;0.859131;0.465332
13.928543;0.254883;0.861328;0.473633
13.928807;0.253418;0.854492;0.472900
13.928902;0.255127;0.848389;0.469971
14.028855;0.252441;0.856445;0.466797
14.028881;0.256104;0.854492;0.470215
14.028905;0.258057;0.850342;0.473633
14.028929;0.267090;0.846436;0.478271
14.117364;0.266113;0.848389;0.474854
14.117454;0.260498;0.856934;0.466553
14.117527;0.250732;0.860352;0.457764
14.117564;0.246094;0.870850;0.458740
14.312212;0.248047;0.861328;0.461426
14.312323;0.253906;0.855225;0.466309
14.312385;0.255859;0.856934;0.465576
14.312441;0.253662;0.854980;0.467285
14.410169;0.261475;0.848389;0.470703
14.410309;0.266357;0.841797;0.475098
14.410395;0.271729;0.843994;0.476318
14.410474;0.266357;0.850586;0.469238
14.507664;0.256592;0.856201;0.466553
14.507811;0.252930;0.857666;0.464844
14.507898;0.258545;0.854004;0.469238
14.507977;0.262695;0.848389;0.468750
14.799680;0.263184;0.852539;0.467529
14.801417;0.260010;0.851074;0.461670
14.801890;0.264404;0.848633;0.465820
14.802020;0.263672;0.849609;0.459229
14.802108;0.258301;0.856201;0.474121
14.802190;0.259766;0.848145;0.476074
14.802267;0.262451;0.854492;0.469482
14.802343;0.258057;0.852539;0.467529
14.897677;0.258545;0.851074;0.465576
14.897807;0.259521;0.853271;0.468018
14.897899;0.261719;0.851074;0.469238
14.897984;0.261230;0.850830;0.467041
14.995693;0.258789;0.853271;0.468750
14.995814;0.259033;0.854736;0.466553
14.995903;0.258789;0.852295;0.466553
14.995987;0.261230;0.851807;0.467773
15.585561;0.260254;0.852051;0.467529
15.585699;0.261475;0.853516;0.471436
15.585793;0.259521;0.852539;0.471436
15.585880;0.261230;0.851562;0.468994
15.608169;0.260742;0.851318;0.464844
15.608283;0.259033;0.854492;0.466553
15.608345;0.260742;0.852295;0.469482
15.608403;0.258545;0.857422;0.469482
15.676674;0.257568;0.854248;0.466553
15.676714;0.257812;0.849365;0.464111
15.676739;0.257080;0.854248;0.464600
15.676761;0.255615;0.854980;0.466064
15.678374;0.255859;0.850342;0.465332
15.678406;0.257324;0.853760;0.468506
15.678478;0.255615;0.854980;0.471924
15.678502;0.255615;0.854736;0.468262
15.773567;0.255615;0.855225;0.462402
15.773612;0.255859;0.855225;0.462158
15.773632;0.248047;0.856934;0.458740
15.773651;0.244141;0.861816;0.455811
15.774497;0.244873;0.862793;0.462891
15.774526;0.251465;0.861084;0.480469
15.774546;0.250732;0.854980;0.476074
15.774565;0.246338;0.844971;0.459961
15.969215;0.263428;0.860840;0.474365
15.969255;0.271973;0.844727;0.470215
15.969276;0.273682;0.838379;0.460693
15.969296;0.258789;0.850342;0.459229
16.066980;0.239746;0.866943;0.454346
16.067024;0.220215;0.884277;0.445068
16.067055;0.214355;0.915771;0.440430
16.067078;0.211182;0.906494;0.450684
16.164251;0.199219;0.888672;0.452637
16.164289;0.224365;0.852539;0.435791
16.164314;0.258057;0.849365;0.451904
16.164337;0.274414;0.837402;0.463623
16.262503;0.280273;0.858154;0.443115
16.262550;0.267334;0.871582;0.446045
16.262581;0.233887;0.875732;0.468750
16.262609;0.215820;0.865479;0.459473
16.848797;0.220459;0.868408;0.455078
16.849209;0.218262;0.893555;0.450195
16.849302;0.224365;0.876465;0.425049
16.849386;0.238770;0.806152;0.424316
16.851061;0.246826;0.879150;0.436035
16.851147;0.252930;0.878906;0.446045
16.851231;0.258545;0.862061;0.441895
16.851313;0.261719;0.843750;0.447266
16.945967;0.254395;0.855225;0.476318
16.946089;0.251465;0.857910;0.478027
16.946180;0.250000;0.846191;0.473877
16.950027;0.247803;0.850586;0.475830
16.951382;0.241943;0.869141;0.450439
16.951477;0.253906;0.851562;0.447021
16.951563;0.263672;0.845215;0.475586
16.951645;0.265137;0.834473;0.468750
17.043587;0.255127;0.851318;0.460693
17.043724;0.246338;0.862305;0.452637
17.043818;0.237305;0.877441;0.459473
17.043901;0.231689;0.895752;0.462402
17.045135;0.227051;0.893066;0.473389
17.045240;0.239746;0.891602;0.462891
17.045324;0.239258;0.880127;0.442627
17.045406;0.269287;0.865234;0.461426
17.140100;0.291016;0.843506;0.454834
17.140236;0.318848;0.802002;0.429443
17.140327;0.322266;0.812500;0.453857
17.140413;0.273438;0.805908;0.479248
17.335148;0.233398;0.830811;0.488525
17.335287;0.223877;0.874756;0.510010
17.335381;0.251221;0.906738;0.485596
17.335466;0.294434;0.922119;0.452393
17.432854;0.242676;0.760010;0.443604
17.432974;0.265869;0.872803;0.496582
17.433062;0.217041;0.864990;0.447510
17.433147;0.151611;0.885010;0.449707
17.531012;0.161865;0.960449;0.471680
17.531153;0.166504;0.978027;0.499023
17.531244;0.252197;0.847168;0.450439
17.531330;0.297852;0.750488;0.484619
17.725225;0.338623;0.745117;0.525146
17.725370;0.323730;0.835693;0.505615
17.725464;0.280029;0.910156;0.444336
17.725550;0.227051;0.935791;0.421143
17.822916;0.161377;0.921875;0.480469
17.823048;0.120117;0.884277;0.540283
17.823139;0.063965;0.742920;0.510742
17.823227;0.090088;0.718018;0.526123
17.920092;0.125000;0.826172;0.544922
17.920231;0.147217;0.884766;0.515869
17.920322;0.170898;0.837158;0.466309
17.920406;0.209229;0.838379;0.465576
18.018215;0.216797;0.811279;0.464600
18.018335;0.241455;0.806641;0.486084
18.018425;0.367188;1.044189;0.471191
18.018509;0.286621;0.877441;0.447021
18.213869;0.238770;0.759521;0.305908
18.214008;0.279297;0.757080;0.358643
18.214102;0.260986;0.969482;0.440674
18.214190;0.155273;1.184326;0.409180
18.310293;0.083496;1.175781;0.457764
18.310432;0.073242;1.117920;0.573975
18.310528;0.118164;0.980957;0.570068
18.310612;0.049561;0.931396;0.506592
18.408188;0.027344;0.889404;0.405762
18.408304;0.041016;0.942139;0.456299
18.408396;0.080811;1.020996;0.437256
18.408480;0.151367;1.038086;0.410156
19.004854;0.092773;0.614014;0.452393
19.004948;0.153564;0.676514;0.559082
19.004990;0.186768;0.659668;0.590088
19.005028;0.279297;0.691895;0.574707
19.090487;0.299072;0.568359;0.650146
19.090679;0.281738;0.609375;0.712402
19.091106;0.316162;0.626221;0.692627
19.091198;0.350586;0.711670;0.493164
19.092939;0.657715;0.402832;0.685791
19.093040;0.518555;0.224121;0.513672
19.093124;0.407959;0.395264;0.407959
19.093206;0.439697;0.507812;0.318848
19.191057;0.749023;1.466064;0.870605
19.191187;0.293457;1.052246;1.035645
19.191278;0.306152;1.166748;0.829102
19.191364;0.218994;0.841064;0.546875
19.192427;0.067139;0.812256;0.529541
19.192532;0.053467;0.699219;0.642578
19.192688;0.033691;0.583252;0.807129
19.192774;0.057617;0.596436;0.732178
19.286070;0.103516;0.602295;0.570312
19.286207;0.125732;0.732666;0.726807
19.286304;0.149170;0.686768;0.752441
19.286390;0.161377;0.655273;0.831543
19.383110;0.199707;0.766357;0.649658
19.383253;0.171387;0.716309;0.733398
19.383348;0.145996;0.697754;0.739746
19.383434;0.187256;0.555420;0.704834
19.484514;0.186768;0.629639;0.666992
19.484680;0.179932;0.702148;0.677002
19.484747;0.162598;0.756592;0.709229
19.484808;0.155762;0.735352;0.698730
19.578415;0.150635;0.710938;0.668945
19.578560;0.171387;0.722168;0.658447
19.578758;0.184570;0.747070;0.656738
19.578848;0.190186;0.760986;0.660645
19.675205;0.192627;0.744629;0.643066
19.675348;0.186768;0.749023;0.636475
19.675440;0.170166;0.720947;0.644775
19.675526;0.162354;0.821289;0.645264
19.870449;0.168457;0.735107;0.644287
19.870579;0.177490;0.720215;0.629639
19.870670;0.183838;0.747559;0.632080
19.870758;0.173340;0.771484;0.647705
19.968033;0.177490;0.767090;0.637695
19.968166;0.169189;0.754883;0.637939
19.968260;0.171387;0.759277;0.638672
19.968348;0.171387;0.764893;0.634033
20.064787;0.161621;0.762451;0.633545
20.064888;0.160645;0.775635;0.640137
20.064949;0.163086;0.762451;0.637695
20.065006;0.159912;0.755371;0.631348
20.260490;0.156006;0.757324;0.635010
20.260647;0.155518;0.764648;0.636719
20.260740;0.168701;0.782227;0.624268
20.260826;0.160156;0.796387;0.620605
20.455875;0.164062;0.802490;0.629639
20.456104;0.178711;0.755371;0.628174
20.456299;0.182129;0.743652;0.626953
20.456455;0.174561;0.754395;0.635010
20.456669;0.165039;0.761230;0.632080
20.456860;0.164307;0.757568;0.622314
20.457092;0.166748;0.767334;0.629150
20.457434;0.172363;0.772949;0.629395
20.552944;0.174561;0.775879;0.629150
20.553078;0.163330;0.779785;0.623535
20.553169;0.167969;0.785889;0.640869
20.553257;0.177002;0.769043;0.626465
21.138441;0.169678;0.762695;0.622070
21.138590;0.178711;0.741211;0.635986
21.138685;0.184326;0.738525;0.631104
21.138771;0.179932;0.745361;0.624756
21.235245;0.189209;0.774170;0.639160
21.235392;0.199951;0.778320;0.630127
21.235483;0.214355;0.778320;0.621826
21.235571;0.227051;0.778320;0.599854
21.332951;0.219727;0.770264;0.599365
21.333084;0.218262;0.759521;0.602051
21.333178;0.206299;0.748535;0.609863
21.333263;0.193359;0.753418;0.623047
21.431252;0.190918;0.767822;0.640137
21.431381;0.192383;0.770996;0.635254
21.431475;0.202393;0.758789;0.620850
21.431559;0.213867;0.778564;0.612061
21.527987;0.216064;0.776855;0.613281
21.528439;0.221436;0.763672;0.601562
21.528538;0.227539;0.765869;0.607666
21.528625;0.217285;0.765869;0.620850
21.530827;0.202148;0.759033;0.633545
21.530920;0.194824;0.747314;0.635254
21.531000;0.196533;0.743164;0.634521
21.531076;0.204590;0.749023;0.624023
21.531687;0.211670;0.763428;0.615479
21.531773;0.219482;0.785889;0.623779
21.531858;0.237305;0.774170;0.617920
21.531942;0.209717;0.784424;0.607422
21.625458;0.181641;0.774902;0.611328
21.625587;0.154297;0.741943;0.624512
21.625694;0.149658;0.747314;0.635498
21.625780;0.171387;0.774902;0.629639
21.722979;0.189209;0.781006;0.625244
21.723127;0.191162;0.777588;0.615967
21.723221;0.191406;0.759521;0.618652
21.723307;0.186035;0.759033;0.618896
21.820675;0.182617;0.762939;0.617676
21.820791;0.179688;0.781006;0.626221
21.820883;0.177490;0.784180;0.620361
21.820967;0.173828;0.788086;0.610596
22.406301;0.179443;0.772461;0.617432
22.406446;0.174561;0.768066;0.616699
22.406542;0.162354;0.788086;0.626221
22.406626;0.156738;0.801758;0.631104
22.502989;0.166748;0.784912;0.619385
22.503126;0.170166;0.765625;0.609863
22.503222;0.164307;0.769287;0.613770
22.503309;0.166504;0.775879;0.620117
22.600370;0.172363;0.772461;0.618896
22.600512;0.183594;0.763428;0.629883
22.600605;0.185791;0.768799;0.629150
22.600691;0.193604;0.767822;0.615234
22.701590;0.187256;0.783936;0.618408
22.701715;0.187256;0.776367;0.617432
22.701809;0.188232;0.754395;0.614746
22.701895;0.179688;0.754150;0.612305
22.703594;0.166016;0.771240;0.614502
22.704407;0.161621;0.788330;0.618896
22.704515;0.168213;0.792969;0.612305
22.704603;0.169922;0.790527;0.613525
22.797825;0.172119;0.782471;0.613281
22.797941;0.168701;0.793945;0.607910
22.798029;0.171875;0.791992;0.607422
22.798115;0.173828;0.780029;0.604736
22.799217;0.170654;0.782715;0.609619
22.799320;0.171631;0.777344;0.611572
22.799402;0.169189;0.785400;0.614258
22.799484;0.179199;0.778564;0.613770
22.892654;0.181885;0.778564;0.609863
22.892971;0.177734;0.778076;0.607910
22.893066;0.172119;0.780518;0.612061
22.893150;0.169189;0.777100;0.618896
22.990507;0.168701;0.771240;0.616943
22.990637;0.170898;0.779053;0.614014
22.990728;0.172119;0.781250;0.611816
22.990816;0.176270;0.784180;0.611572
23.185398;0.179688;0.784668;0.611328
23.185532;0.176758;0.780518;0.612305
23.185627;0.178711;0.779541;0.616699
23.185713;0.176514;0.773682;0.614502
23.282707;0.176758;0.775391;0.613770
23.282858;0.174316;0.778076;0.615479
23.282949;0.177002;0.775391;0.617676
23.283033;0.179932;0.772949;0.615234
23.380428;0.180176;0.779785;0.616211
23.380560;0.176514;0.779785;0.613525
23.381058;0.179932;0.783936;0.609131
23.381149;0.178955;0.778809;0.611084
23.477898;0.177490;0.777344;0.614258
23.478048;0.176514;0.775879;0.616699
23.478142;0.177002;0.775879;0.618408
23.478228;0.179443;0.771729;0.615234
23.575567;0.178955;0.776367;0.616211
23.575687;0.183838;0.774902;0.616699
23.575792;0.180664;0.778564;0.616211
23.575876;0.179688;0.775391;0.620361
23.770775;0.182617;0.776367;0.620117
23.770924;0.180908;0.772705;0.613037
23.771021;0.183594;0.774414;0.611084
23.771107;0.177490;0.776855;0.614746
23.867775;0.182373;0.775146;0.618652
23.867914;0.179688;0.773193;0.616943
23.868008;0.181152;0.777588;0.618652
23.868093;0.180908;0.778809;0.614258
23.968122;0.179199;0.774902;0.615234
23.968262;0.178467;0.777100;0.615723
23.968353;0.181885;0.773682;0.615234
23.968439;0.180664;0.774902;0.617188
24.550762;0.179688;0.777344;0.617432
24.551075;0.177490;0.777588;0.616699
24.551172;0.181152;0.776855;0.618408
24.551262;0.179443;0.780273;0.616455
24.648346;0.178711;0.774902;0.620117
24.648485;0.178711;0.770996;0.618408
24.648577;0.179199;0.775391;0.615234
24.648663;0.182373;0.773438;0.613770
24.650099;0.177246;0.777344;0.614746
24.650202;0.175781;0.775879;0.616943
24.650286;0.178467;0.770996;0.616943
24.650368;0.180176;0.772705;0.617432
24.746557;0.179932;0.776367;0.619385
24.746677;0.178711;0.780029;0.614746
24.746771;0.178467;0.777344;0.614746
24.746857;0.178955;0.775879;0.614014
24.842999;0.178955;0.774902;0.616455
24.843143;0.180176;0.777588;0.618408
24.843565;0.177979;0.775391;0.617432
24.843658;0.177246;0.772461;0.615723
24.845837;0.177490;0.774902;0.615234
24.845942;0.178955;0.779297;0.616455
24.846029;0.176758;0.773682;0.618408
24.846113;0.180176;0.777100;0.616943
24.940557;0.178467;0.778564;0.613770
24.940697;0.181152;0.777344;0.613281
24.940790;0.178223;0.778320;0.613770
24.940876;0.177002;0.774170;0.615723
25.037857;0.177734;0.777832;0.617920
25.038151;0.177002;0.774902;0.618164
25.038244;0.177002;0.773438;0.616455
25.038330;0.175781;0.779297;0.614502
25.135483;0.177002;0.776123;0.616943
25.135614;0.178955;0.778809;0.614258
25.135710;0.178223;0.774170;0.616943
25.135796;0.176758;0.776611;0.616699
25.232964;0.174805;0.773926;0.615967
25.233103;0.177002;0.774902;0.617188
25.233194;0.178467;0.780518;0.614990
25.233280;0.178711;0.779053;0.617188
25.822418;0.178955;0.773438;0.619385
25.822573;0.175049;0.775879;0.614014
25.822666;0.177002;0.773193;0.612305
25.822752;0.173584;0.779785;0.612793
25.915964;0.174561;0.783203;0.614014
25.916100;0.178955;0.777832;0.613770
25.916193;0.184814;0.783691;0.617676
25.916281;0.184814;0.775635;0.619629
26.112146;0.178711;0.769043;0.619141
26.112284;0.171631;0.765381;0.618652
26.112375;0.172119;0.773926;0.620117
26.112461;0.177979;0.777832;0.618164
26.113615;0.176025;0.778076;0.614014
26.113716;0.175781;0.776855;0.615723
26.113819;0.177002;0.777344;0.616211
26.113903;0.178223;0.777344;0.615723
26.209904;0.177734;0.778809;0.618164
26.210043;0.174316;0.777588;0.623779
26.210136;0.174316;0.777100;0.620850
26.210220;0.176025;0.771973;0.614746
26.305557;0.182129;0.770996;0.611328
26.305698;0.181641;0.779053;0.611328
26.306273;0.180176;0.777588;0.617188
26.306366;0.181885;0.772217;0.616943
26.308086;0.182373;0.774902;0.620117
26.308187;0.179932;0.776123;0.621094
26.308273;0.182617;0.775879;0.618652
26.308355;0.179932;0.777588;0.614746
26.309374;0.184570;0.773682;0.614502
26.309679;0.184570;0.773438;0.615234
26.309774;0.182373;0.769775;0.616943
26.309858;0.182373;0.780029;0.613037
26.403675;0.185791;0.774902;0.615967
26.403797;0.189453;0.777832;0.612793
26.403889;0.185059;0.772705;0.615967
26.403975;0.182617;0.773193;0.619141
26.501633;0.181641;0.773193;0.617188
26.501730;0.177979;0.768311;0.614990
26.502689;0.178955;0.768311;0.618896
26.502781;0.180908;0.775879;0.620605
26.598545;0.187256;0.776367;0.605469
26.598663;0.194580;0.787109;0.603516
26.598753;0.180176;0.794189;0.614258
26.598839;0.176514;0.774170;0.616211
27.183445;0.183594;0.766357;0.613770
27.183590;0.188232;0.778076;0.605225
27.183685;0.189941;0.782715;0.603760
27.183771;0.186768;0.773193;0.602539
27.281059;0.179199;0.784668;0.614258
27.281700;0.179199;0.780518;0.617920
27.282120;0.176270;0.770996;0.618164
27.282341;0.179199;0.781494;0.611084
27.410076;0.181152;0.770752;0.602051
27.410145;0.189941;0.784424;0.609619
27.410187;0.190918;0.782715;0.609619
27.410225;0.178467;0.781250;0.616211
27.476336;0.174072;0.777588;0.616455
27.476494;0.177979;0.780762;0.610596
27.476587;0.185303;0.781494;0.610107
27.476677;0.187744;0.783936;0.612305
27.572796;0.181641;0.773193;0.609131
27.572935;0.176270;0.772461;0.610840
27.573029;0.174561;0.773682;0.615723
27.573114;0.182617;0.778809;0.610107
27.670748;0.183594;0.782959;0.612793
27.670868;0.181396;0.787109;0.612305
27.670959;0.182373;0.778564;0.611816
27.671043;0.183350;0.777832;0.612305
27.768806;0.186035;0.780518;0.613037
27.769388;0.186279;0.779785;0.608887
27.769487;0.177490;0.782227;0.614746
27.769575;0.173584;0.778320;0.615479
27.771519;0.178467;0.765869;0.612793
27.771605;0.177979;0.776855;0.614746
27.771688;0.183838;0.778564;0.611084
27.771770;0.184082;0.779297;0.608154
27.866022;0.185059;0.784424;0.611328
27.866144;0.185791;0.775391;0.609131
27.866240;0.181641;0.783203;0.613281
27.866339;0.181396;0.781250;0.613037
27.867294;0.176270;0.781982;0.614014
27.867397;0.176758;0.783203;0.610596
27.867481;0.176758;0.774170;0.608643
27.867563;0.177979;0.776123;0.611572
28.060205;0.177002;0.774658;0.615723
28.060347;0.177734;0.778076;0.616699
28.060438;0.176270;0.780762;0.615234
28.060524;0.180176;0.779785;0.612793
28.158499;0.182861;0.781738;0.607422
28.158644;0.185791;0.780273;0.610596
28.158739;0.177002;0.777100;0.613525
28.158840;0.174316;0.775146;0.615234
28.255369;0.174072;0.781250;0.612061
28.255518;0.174561;0.778564;0.610352
28.255611;0.171875;0.781006;0.613525
28.255695;0.176758;0.776123;0.611572
28.452574;0.178711;0.779541;0.612793
28.452709;0.176758;0.780273;0.612305
28.452806;0.175781;0.782227;0.614502
28.452892;0.176514;0.782227;0.612061
28.548603;0.176758;0.779297;0.608398
28.548727;0.179932;0.780029;0.609375
28.548819;0.176758;0.780273;0.612549
28.548904;0.177734;0.778076;0.614502
28.645437;0.176270;0.777100;0.614746
28.645620;0.174561;0.782227;0.613770
28.645714;0.177734;0.780518;0.612061
28.645800;0.178711;0.778809;0.609619
28.744459;0.178467;0.779541;0.612549
28.744678;0.175293;0.778320;0.614014
28.744785;0.175537;0.777100;0.614014
28.744867;0.175781;0.778076;0.611084
29.328239;0.176025;0.776611;0.612549
29.328527;0.177734;0.782471;0.612305
29.328630;0.179443;0.775879;0.612549
29.328720;0.180176;0.778564;0.612061
29.424541;0.175781;0.781494;0.613525
29.424679;0.176270;0.779785;0.614258
29.424770;0.177490;0.783936;0.608887
29.425240;0.177979;0.789062;0.600830
29.426203;0.181152;0.777344;0.607178
29.426308;0.188477;0.764893;0.618896
29.426392;0.191895;0.768799;0.621826
29.426474;0.183350;0.776855;0.618408
29.523373;0.171631;0.781982;0.610107
29.523493;0.160889;0.797119;0.613037
29.523582;0.158447;0.795654;0.605225
29.523668;0.159180;0.795654;0.609375
29.621874;0.159180;0.777832;0.612549
29.621983;0.171143;0.776855;0.603516
29.622068;0.179443;0.786865;0.598389
29.622152;0.184082;0.792480;0.603516
29.718681;0.181641;0.780762;0.607178
29.718943;0.191162;0.769043;0.619873
29.719040;0.202393;0.759033;0.626953
29.719440;0.199463;0.761963;0.621094
29.720949;0.188721;0.781250;0.615234
29.721046;0.180176;0.786133;0.609863
29.721128;0.170654;0.784912;0.609863
29.721212;0.168457;0.783691;0.610840
29.815704;0.166504;0.780762;0.607910
29.815838;0.172852;0.782715;0.609375
29.815928;0.179932;0.785156;0.611328
29.816011;0.179688;0.782471;0.607910
29.913933;0.181152;0.770508;0.604980
29.914068;0.184326;0.773193;0.610107
29.914160;0.185303;0.780762;0.614502
29.914244;0.186768;0.784424;0.614014
30.010860;0.186768;0.783691;0.610840
30.010981;0.182861;0.775879;0.610352
30.011070;0.179199;0.786133;0.611572
30.011154;0.179688;0.781006;0.614014
30.692648;0.180176;0.779297;0.609619
30.692907;0.177002;0.779785;0.605957
30.693165;0.176025;0.776367;0.608154
30.693251;0.177246;0.780518;0.609131
30.791349;0.177490;0.777588;0.614014
30.791496;0.179688;0.777832;0.614990
30.791594;0.183838;0.775146;0.614990
30.791679;0.185791;0.774414;0.612793
30.792910;0.187988;0.775879;0.613037
30.793007;0.185303;0.773682;0.613281
30.793083;0.185303;0.774170;0.612061
30.793158;0.181396;0.783203;0.612793
30.888454;0.177002;0.780029;0.611816
30.888590;0.171875;0.780029;0.612061
30.888685;0.174805;0.784424;0.613281
30.888775;0.178711;0.781006;0.609863
30.985765;0.180420;0.785156;0.607178
30.985916;0.181885;0.781738;0.611084
30.986010;0.183105;0.776367;0.613281
30.986250;0.178955;0.775879;0.615967
31.083349;0.180176;0.777344;0.616943
31.083475;0.182129;0.780029;0.612549
31.083706;0.182373;0.782227;0.611328
31.083801;0.180664;0.779297;0.609619
31.084869;0.178711;0.777588;0.609131
31.084978;0.177002;0.780518;0.611816
31.085064;0.175293;0.778809;0.613525
31.085146;0.174805;0.780273;0.611572
31.180689;0.177979;0.781006;0.610596
31.180820;0.177979;0.778564;0.608887
31.181259;0.181396;0.784180;0.611328
31.181351;0.178955;0.778564;0.614258
31.183571;0.178467;0.776367;0.615967
31.183655;0.178467;0.779541;0.611572
31.183737;0.181396;0.778564;0.610352
31.183817;0.177979;0.776611;0.610352
31.277773;0.176758;0.775635;0.612793
31.277912;0.178223;0.778320;0.611572
31.278004;0.176514;0.778320;0.611816
31.278090;0.174561;0.784668;0.614502
31.472912;0.178223;0.780762;0.610840
31.473057;0.176514;0.779541;0.607910
31.473148;0.176514;0.781982;0.608887
31.473234;0.178467;0.778564;0.609863
31.570698;0.182617;0.784180;0.613525
31.570827;0.185303;0.784180;0.617432
31.570925;0.178467;0.768066;0.611328
31.571011;0.172607;0.763916;0.609619
31.667755;0.172852;0.780518;0.613281
31.667894;0.179443;0.788086;0.615234
31.667988;0.183350;0.789062;0.611084
31.668072;0.181885;0.790771;0.607422
31.862801;0.175049;0.784668;0.605469
31.862940;0.172607;0.777588;0.608154
31.863031;0.170410;0.775391;0.615723
31.863119;0.173584;0.774658;0.616455
31.960920;0.178711;0.775879;0.612305
31.961067;0.180420;0.783203;0.612549
31.961163;0.181885;0.780029;0.610107
31.961248;0.181641;0.778809;0.610596
32.155193;0.178467;0.780518;0.611816
32.155674;0.176025;0.782227;0.613281
32.155777;0.174805;0.783936;0.618408
32.155865;0.175049;0.784424;0.614990
32.157024;0.177979;0.778564;0.612305
32.157127;0.181152;0.781006;0.600342
32.157211;0.184082;0.771729;0.603271
32.157295;0.188965;0.761475;0.620605
32.742081;0.189941;0.761963;0.624512
32.742210;0.186523;0.771973;0.620117
32.742302;0.170654;0.791992;0.613770
32.742390;0.165039;0.799316;0.604736
32.837811;0.165527;0.790283;0.604248
32.838383;0.169922;0.782227;0.612793
32.838482;0.174561;0.774658;0.614014
32.838570;0.178223;0.774170;0.612061
32.839870;0.181641;0.785889;0.610596
32.839973;0.179199;0.781982;0.613525
32.840057;0.183594;0.783691;0.615234
32.840141;0.189697;0.768311;0.614990
32.935474;0.186523;0.768555;0.613770
32.935619;0.179688;0.774414;0.614746
32.935715;0.168701;0.778809;0.614990
32.938633;0.170654;0.780518;0.618164
33.034477;0.180664;0.774414;0.617920
33.034599;0.189209;0.778076;0.608398
33.034691;0.185791;0.782471;0.604492
33.034771;0.171875;0.784912;0.606201
33.131443;0.171387;0.780518;0.612793
33.131580;0.178223;0.783691;0.616211
33.132408;0.192871;0.775146;0.613770
33.132504;0.204834;0.766357;0.611328
33.133884;0.196777;0.776367;0.609863
33.133980;0.183838;0.777344;0.608643
33.134064;0.185791;0.781494;0.626953
33.134148;0.187500;0.775391;0.629395
33.227787;0.190918;0.776367;0.624023
33.227928;0.185547;0.772705;0.605225
33.228020;0.175293;0.770508;0.595947
33.228119;0.160645;0.776367;0.596436
33.325630;0.152832;0.789551;0.612793
33.325764;0.159668;0.785645;0.619873
33.325855;0.169189;0.770752;0.614014
33.325943;0.176270;0.777832;0.615479
33.422867;0.181396;0.785400;0.620361
33.423004;0.174316;0.781494;0.617920
33.423096;0.177734;0.771240;0.618164
33.423183;0.189453;0.773193;0.617432
33.618439;0.209229;0.769043;0.624512
33.618557;0.221191;0.758301;0.613525
33.618649;0.210205;0.780029;0.604004
33.618748;0.178711;0.792969;0.604248
33.716393;0.157959;0.767334;0.615234
33.716518;0.151855;0.782715;0.616943
33.716610;0.157715;0.792480;0.625244
33.716698;0.170166;0.774658;0.613525
33.812881;0.175293;0.772217;0.604004
33.813019;0.187256;0.771729;0.604736
33.813114;0.196045;0.786133;0.609619
33.813198;0.193115;0.781494;0.614014
33.910885;0.190186;0.772461;0.613525
33.911026;0.178223;0.779541;0.627197
33.911137;0.178223;0.771729;0.618896
33.911228;0.181396;0.774414;0.620850
34.496395;0.173584;0.775146;0.615967
34.496822;0.167969;0.790283;0.610107
34.496922;0.167480;0.790283;0.611328
34.497009;0.181152;0.788574;0.614014
34.592575;0.182861;0.770264;0.603516
34.593044;0.183838;0.778076;0.609131
34.593143;0.172852;0.783936;0.612549
34.593227;0.180176;0.763184;0.616455
34.595276;0.191162;0.772461;0.619629
34.595379;0.189697;0.775879;0.621582
34.595467;0.185303;0.769287;0.617920
34.595551;0.176025;0.773438;0.614258
34.596825;0.177002;0.778320;0.610352
34.596920;0.184082;0.784668;0.617188
34.597000;0.188232;0.785889;0.614502
34.597084;0.182129;0.768311;0.609619
34.690708;0.176270;0.769775;0.610596
34.690849;0.170410;0.780762;0.610840
34.690941;0.180176;0.776611;0.618408
34.691357;0.193115;0.778320;0.626465
34.692604;0.196777;0.776123;0.618896
34.692703;0.177979;0.783447;0.614502
34.692791;0.173096;0.777344;0.615723
34.692871;0.185791;0.761230;0.613770
34.885380;0.199951;0.767334;0.615723
34.885517;0.192139;0.774658;0.617432
34.885609;0.187988;0.773682;0.616943
34.885696;0.189941;0.768066;0.620605
35.080448;0.188232;0.774414;0.618896
35.080952;0.186768;0.781006;0.616211
35.081047;0.185547;0.778564;0.618896
35.081280;0.188477;0.772949;0.616211
35.082691;0.191895;0.772949;0.614746
35.082802;0.189941;0.772461;0.607666
35.082886;0.187500;0.766113;0.617432
35.082970;0.175537;0.769775;0.621826
35.178905;0.175049;0.768311;0.620850
35.179165;0.182129;0.761475;0.620361
35.179268;0.184326;0.769531;0.620850
35.179356;0.182617;0.758545;0.614746
35.373131;0.183105;0.772461;0.604736
35.373260;0.194336;0.787354;0.604492
35.373352;0.210449;0.792725;0.618652
35.373440;0.212646;0.769775;0.597900
35.471455;0.188477;0.875732;0.586182
35.471535;0.188965;0.765381;0.604736
35.471577;0.210938;0.601562;0.554443
35.471615;0.136230;0.768311;0.567627
35.567894;0.156494;0.997559;0.571777
35.567970;0.142334;1.037842;0.491699
35.568012;0.166504;0.889648;0.480957
35.568050;0.190186;0.777588;0.567871
36.154030;0.185547;0.797119;0.581055
36.154514;0.167969;0.831787;0.545166
36.154617;0.167236;0.827148;0.540283
36.154705;0.176758;0.820068;0.543945
36.156143;0.179688;0.819580;0.539795
36.156235;0.173828;0.828613;0.538574
36.156319;0.170166;0.835449;0.560791
36.156403;0.171875;0.826172;0.556885
36.252487;0.166260;0.825928;0.549805
36.252583;0.162354;0.828369;0.553711
36.252670;0.157715;0.832520;0.553223
36.252750;0.164062;0.829590;0.559326
36.347675;0.177979;0.814209;0.552002
36.348145;0.190430;0.805908;0.551514
36.348240;0.159180;0.776123;0.546387
36.348751;0.222412;1.017090;0.679932
36.351257;0.210938;0.717529;0.501953
36.351368;0.128174;0.824219;0.505127
36.351452;0.117676;0.944580;0.634766
36.351547;0.169434;0.858887;0.592529
36.351715;0.162354;0.768555;0.475098
36.351795;0.183105;0.815674;0.538330
36.351879;0.181641;0.770508;0.578857
36.351959;0.169434;0.854004;0.590820
36.445393;0.161865;0.830566;0.572754
36.445625;0.168945;0.802734;0.561035
36.445721;0.169922;0.811523;0.533691
36.445805;0.175781;0.815674;0.548096
36.640522;0.187012;0.827881;0.556885
36.640663;0.179443;0.818359;0.555176
36.640759;0.167480;0.825439;0.558105
36.640842;0.155762;0.821289;0.552490
36.738297;0.153809;0.819580;0.554932
36.738430;0.149414;0.849609;0.543945
36.738525;0.156982;0.841797;0.552979
36.738609;0.165527;0.822510;0.551514
36.835407;0.162842;0.825195;0.545166
36.835548;0.160400;0.829102;0.544678
36.835644;0.164551;0.822754;0.552246
36.835728;0.164795;0.819336;0.552979
37.030300;0.164795;0.833252;0.551025
37.030407;0.159668;0.831299;0.552490
37.030468;0.158936;0.825684;0.549561
37.030525;0.157227;0.829590;0.547363
37.128864;0.157959;0.833496;0.550293
37.128994;0.156494;0.828369;0.561035
37.129093;0.156250;0.829102;0.560547
37.129372;0.162598;0.833008;0.532227
37.225636;0.164551;0.846436;0.512939
37.225784;0.162109;0.842285;0.509277
37.225876;0.159668;0.852295;0.542969
37.225964;0.154053;0.840332;0.559326
37.323467;0.157227;0.827881;0.542725
37.323586;0.153809;0.831055;0.531982
37.323677;0.153564;0.847412;0.530762
37.323765;0.160400;0.849609;0.531494
37.908962;0.165771;0.839355;0.535889
37.909119;0.167480;0.837891;0.531006
37.909344;0.165771;0.836670;0.524658
37.909447;0.162842;0.841553;0.528076
37.910614;0.151855;0.852051;0.534180
37.910713;0.144531;0.840820;0.544678
37.910797;0.153320;0.830322;0.544678
37.910881;0.150635;0.844238;0.536133
38.005814;0.172607;0.858643;0.529541
38.005955;0.169678;0.838867;0.520996
38.006046;0.168213;0.831055;0.539062
38.006134;0.160889;0.832031;0.540039
38.203739;0.155029;0.832275;0.542480
38.203865;0.160645;0.829834;0.539062
38.203957;0.153809;0.833252;0.537109
38.204041;0.155029;0.847412;0.536377
38.205673;0.162354;0.838135;0.529541
38.206627;0.169922;0.830078;0.541016
38.206734;0.163330;0.864990;0.531250
38.206818;0.162354;0.818848;0.543457
38.298054;0.156006;0.823242;0.522217
38.298195;0.152100;0.845947;0.537598
38.298286;0.156738;0.853760;0.541260
38.298374;0.155762;0.826904;0.540771
38.395222;0.154297;0.828613;0.543213
38.395271;0.163818;0.836670;0.540283
38.395302;0.162842;0.846680;0.523438
38.395397;0.166504;0.839844;0.533691
38.397884;0.163330;0.830078;0.546143
38.397930;0.157715;0.835205;0.544922
38.397961;0.152588;0.836426;0.542480
38.397991;0.156738;0.839600;0.540527
38.520538;0.160400;0.843018;0.540283
38.520580;0.164062;0.835205;0.537109
38.520599;0.163818;0.841064;0.535889
38.520618;0.161865;0.839111;0.528320
38.589798;0.162842;0.825684;0.536133
38.589840;0.164795;0.835205;0.542969
38.589863;0.158447;0.838623;0.538330
38.589882;0.153809;0.830322;0.553955
38.785568;0.154541;0.837402;0.559570
38.785717;0.164062;0.847168;0.542725
38.785812;0.159180;0.825195;0.524170
38.785896;0.166260;0.824707;0.535156
38.883583;0.166992;0.828125;0.535400
38.883701;0.153076;0.840332;0.554688
38.883793;0.167236;0.851318;0.566162
38.883881;0.174072;0.857178;0.549805
39.013855;0.162842;0.827148;0.526611
39.013935;0.173584;0.819092;0.540527
39.013996;0.175781;0.818359;0.540283
39.014053;0.156250;0.828369;0.554688
39.175365;0.156738;0.819336;0.559814
39.175514;0.160645;0.818359;0.551270
39.175610;0.146240;0.833252;0.551514
39.175697;0.149902;0.832520;0.568115
39.273170;0.163330;0.816162;0.551514
39.273319;0.170898;0.826904;0.533203
39.273411;0.179443;0.850098;0.540283
39.273499;0.173828;0.849854;0.537842
39.372017;0.172607;0.836182;0.540527
39.372112;0.176758;0.818848;0.552002
39.372200;0.166504;0.793213;0.522217
39.372284;0.167969;0.851074;0.583008
39.468639;0.167969;0.882568;0.624023
39.468781;0.122803;0.869141;0.541016
39.468876;0.146973;0.710449;0.657471
39.469166;0.114014;0.832275;0.395996
39.667362;0.104248;0.927734;0.519531
39.667473;0.117432;0.882080;0.486084
39.667561;0.171631;0.844238;0.586670
39.667645;0.145264;0.865967;0.561523
39.761318;0.118652;0.974609;0.534668
39.761414;0.108154;0.871094;0.489990
39.761501;0.126953;0.995361;0.512207
39.761585;0.035400;0.983643;0.460693
39.857891;0.155029;0.706543;0.693359
39.858025;0.190186;0.643066;0.632080
39.858120;0.223145;0.638916;0.520752
39.858204;0.213623;0.814453;0.507568
40.052864;0.150391;0.878174;0.388428
40.053001;0.105957;0.830322;0.506104
40.053093;0.125732;0.775146;0.553467
40.053181;0.105713;0.805908;0.512451
40.152027;0.177246;1.000488;0.669922
40.152145;0.165283;0.955811;0.575684
40.152237;0.161865;0.890137;0.547852
40.152321;0.152344;0.581787;0.487549
40.251762;0.148193;0.538330;0.319824
40.251911;0.234619;0.776367;0.237793
40.252003;0.194824;0.904297;0.111572
40.252087;0.087646;1.016602;0.022949
40.345860;0.079346;1.347900;0.131348
40.345978;0.079834;1.315918;0.299072
40.346157;0.105225;1.047119;0.265625
40.346245;0.071289;0.892822;0.198975
40.931660;-0.027100;1.010986;0.215332
40.931812;-0.010010;1.029785;0.252686
40.931908;-0.004639;0.968262;0.270752
40.931992;0.050537;0.923096;0.246094
40.933483;0.079590;0.969238;0.211182
40.933582;0.104004;1.015137;0.182861
40.933662;0.109375;1.028320;0.157959
40.934170;0.095703;1.017090;0.169922
41.028439;0.081055;1.006592;0.197021
41.028557;0.064453;0.990234;0.231689
41.028648;0.056396;0.973633;0.241699
41.028736;0.056641;0.976074;0.236328
41.125423;0.058350;0.985352;0.234619
41.125561;0.057129;0.981201;0.239014
41.125656;0.062500;0.968994;0.254395
41.125740;0.069092;0.958252;0.261719
41.224548;0.075439;0.962402;0.257080
41.224670;0.075928;0.970703;0.250732
41.225079;0.072754;0.988281;0.246826
41.225170;0.073975;0.989014;0.244873
41.227104;0.068848;0.989502;0.243164
41.227207;0.069580;0.977051;0.255859
41.227291;0.069092;0.971680;0.255371
41.227371;0.064697;0.982178;0.246094
41.325928;0.066162;0.988037;0.242188
41.326073;0.064209;0.988281;0.242676
41.326168;0.062988;0.982666;0.246094
41.326256;0.072754;0.959717;0.249756
41.418015;0.064209;0.985596;0.249512
41.418148;0.061523;0.973145;0.246582
41.418255;0.063721;0.980469;0.244873
41.418339;0.063721;0.981201;0.244141
41.515907;0.064941;0.986084;0.245605
41.516045;0.067871;0.978027;0.251465
41.516136;0.069092;0.980225;0.256592
41.516224;0.070312;0.973877;0.254639
41.613068;0.066162;0.972412;0.257812
41.613205;0.072754;0.972168;0.256836
41.613297;0.068359;0.977295;0.254639
41.613384;0.065186;0.979004;0.255615
41.808098;0.062012;0.984131;0.253662
41.808235;0.066895;0.981689;0.254639
41.808327;0.064209;0.977539;0.254395
41.808411;0.064941;0.974854;0.256348
41.905712;0.070068;0.970947;0.264893
41.905838;0.062988;0.976074;0.256592
41.905930;0.064209;0.971680;0.255371
41.906013;0.066406;0.980469;0.255615
42.003029;0.062500;0.976807;0.253906
42.003166;0.064453;0.979736;0.254150
42.003258;0.065186;0.981934;0.253418
42.003345;0.066650;0.978760;0.257324
42.101307;0.063965;0.990479;0.251221
42.101425;0.067871;0.982910;0.254150
42.101517;0.065918;0.974365;0.257324
42.101604;0.063721;0.971436;0.260742
42.689617;0.065186;0.973877;0.262207
42.689754;0.066406;0.973877;0.265625
42.689850;0.063477;0.974854;0.263672
42.689938;0.063477;0.975098;0.264404
42.783825;0.065430;0.979248;0.261230
42.784012;0.066650;0.961182;0.265381
42.784115;0.067139;0.978760;0.263184
42.784199;0.073242;0.990723;0.247803
42.785332;0.071045;0.982178;0.246338
42.785427;0.073486;0.977783;0.251953
42.785851;0.066650;0.977051;0.254150
42.785950;0.067871;0.969238;0.258301
42.880985;0.067871;0.981445;0.255371
42.881126;0.072266;0.976562;0.260498
42.881222;0.071777;0.977539;0.259521
42.881321;0.069092;0.976074;0.256836
42.977757;0.073730;0.977051;0.258057
42.977894;0.070557;0.976562;0.257080
42.977985;0.066406;0.977783;0.257324
42.978069;0.069336;0.974121;0.259766
43.075863;0.067627;0.978027;0.259521
43.076332;0.071045;0.979492;0.257568
43.076427;0.072998;0.978027;0.258545
43.076515;0.071777;0.979004;0.259521
43.078201;0.069580;0.972412;0.261475
43.078289;0.068848;0.979736;0.257324
43.078369;0.071045;0.976074;0.256592
43.078449;0.068848;0.975342;0.257080
43.174450;0.066895;0.975342;0.259521
43.174583;0.069824;0.972412;0.261719
43.174679;0.068848;0.973145;0.263916
43.174763;0.068604;0.976562;0.263428
43.270824;0.067627;0.972412;0.264160
43.270950;0.067871;0.977051;0.259277
43.271046;0.067627;0.981201;0.254639
43.271149;0.066406;0.979980;0.257812
43.374184;0.069092;0.979248;0.264160
43.374283;0.071045;0.975830;0.258057
43.374344;0.067383;0.975586;0.257812
43.374401;0.068848;0.974854;0.258057
43.563026;0.071777;0.978760;0.260742
43.563255;0.070557;0.982422;0.258057
43.563351;0.070068;0.976562;0.265869
43.563438;0.069092;0.974854;0.264893
43.660522;0.067139;0.972412;0.263916
43.660660;0.070312;0.970703;0.265381
43.660755;0.066650;0.980225;0.262207
43.660854;0.069824;0.967773;0.266113
43.758640;0.068848;0.969727;0.263916
43.758762;0.066650;0.979492;0.265381
43.758854;0.068848;0.978271;0.264404
43.758938;0.065186;0.976807;0.261475
44.343948;0.067139;0.974121;0.261719
44.344067;0.067383;0.975098;0.259766
44.344158;0.067383;0.976318;0.261230
44.344246;0.066406;0.975586;0.260986
44.440804;0.066650;0.976318;0.262939
44.440956;0.065674;0.978027;0.262451
44.441055;0.067627;0.975830;0.260742
44.441139;0.068359;0.975586;0.261230
44.442268;0.066650;0.976318;0.262207
44.442371;0.066895;0.971680;0.266846
44.442455;0.066895;0.977539;0.261475
44.442539;0.066650;0.978516;0.260254
44.538994;0.067383;0.976562;0.260986
44.539112;0.066650;0.975342;0.260498
44.539322;0.065674;0.972900;0.261230
44.539417;0.067139;0.977539;0.261475
44.636627;0.064453;0.978271;0.263672
44.636723;0.068604;0.977051;0.265137
44.636810;0.065430;0.977539;0.261963
44.637234;0.066162;0.978027;0.261719
44.638489;0.068359;0.977051;0.262695
44.638588;0.066895;0.976318;0.261230
44.638672;0.065430;0.975098;0.263184
44.638752;0.064697;0.976318;0.263672
44.733421;0.066406;0.977783;0.265137
44.734005;0.068115;0.974854;0.262939
44.734104;0.067627;0.971924;0.263672
44.734192;0.067627;0.979004;0.263916
44.831039;0.066895;0.975586;0.266357
44.831173;0.068604;0.973389;0.266113
44.831268;0.067871;0.976074;0.261230
44.831356;0.067383;0.973389;0.263428
44.928524;0.067627;0.975342;0.263184
44.928642;0.065674;0.973877;0.264648
44.928734;0.068359;0.971680;0.268066
44.928822;0.066895;0.975586;0.265869
45.025768;0.067139;0.977539;0.268311
45.025917;0.066895;0.974365;0.263916
45.026012;0.067139;0.974609;0.262939
45.026096;0.067139;0.974121;0.263184
45.220722;0.066895;0.976074;0.265625
45.220867;0.068604;0.975342;0.266357
45.220959;0.068604;0.974854;0.265625
45.221046;0.069580;0.972412;0.267578
45.319824;0.067139;0.974609;0.266357
45.319942;0.069336;0.974365;0.266113
45.320030;0.070557;0.973633;0.266113
45.320114;0.068359;0.975098;0.265137
45.416008;0.065918;0.974365;0.270264
45.416145;0.068115;0.974854;0.268799
45.416298;0.067383;0.972656;0.264160
45.416389;0.069580;0.973145;0.263672
45.611774;0.069092;0.976562;0.264893
45.611923;0.070557;0.972900;0.267578
45.612019;0.067871;0.971924;0.270264
45.612106;0.068115;0.974365;0.268799
45.707321;0.068848;0.976074;0.269043
45.707378;0.069092;0.972412;0.267578
45.707413;0.069092;0.970703;0.267578
45.707439;0.070557;0.973145;0.268799
45.804989;0.070557;0.975098;0.266113
45.805054;0.068359;0.973389;0.267090
45.805092;0.068115;0.973145;0.267334
45.805138;0.068848;0.975586;0.267334
45.903008;0.067627;0.973633;0.266357
45.903343;0.068848;0.972900;0.269531
45.903416;0.069092;0.974854;0.265381
45.903473;0.070557;0.976562;0.267822
46.488693;0.065918;0.972900;0.270264
46.489292;0.066406;0.974121;0.265381
46.489395;0.067383;0.973145;0.263672
46.489502;0.067139;0.974121;0.262939
46.490669;0.068115;0.975830;0.263672
46.490772;0.068115;0.973389;0.266113
46.490856;0.068604;0.973145;0.268555
46.490936;0.066650;0.974609;0.269287
46.586514;0.069336;0.973877;0.266602
46.587025;0.067139;0.975586;0.265137
46.587116;0.066895;0.974854;0.263672
46.587200;0.066162;0.975586;0.264648
46.588760;0.066162;0.975342;0.264648
46.589256;0.067871;0.974854;0.264404
46.589939;0.067627;0.975830;0.265137
46.590542;0.066895;0.977051;0.264160
46.689568;0.066406;0.975830;0.265137
46.689690;0.068359;0.972412;0.265625
46.689930;0.068604;0.974365;0.264404
46.690022;0.065430;0.976807;0.269043
46.690102;0.067871;0.972168;0.268066
46.690186;0.065430;0.976562;0.265137
46.690269;0.067383;0.974609;0.262939
46.690353;0.065430;0.973877;0.263916
46.780720;0.064697;0.975098;0.262451
46.780865;0.067627;0.976074;0.267334
46.780956;0.064941;0.981934;0.264404
46.781044;0.057617;0.984375;0.254883
46.977131;0.066406;0.970947;0.272461
46.977234;0.061523;0.953857;0.270020
46.977299;0.061035;0.976807;0.261475
46.977356;0.064697;0.981445;0.265137
47.086262;0.064941;0.974121;0.264160
47.086403;0.066895;0.976807;0.267090
47.086494;0.064209;0.976074;0.267090
47.086582;0.065186;0.965332;0.268311
47.171471;0.065918;0.974609;0.266113
47.171593;0.065918;0.979492;0.269287
47.171680;0.062500;0.976074;0.267334
47.171764;0.061279;0.972656;0.270020
47.365608;0.064453;0.974854;0.267090
47.365746;0.064697;0.976318;0.266113
47.365841;0.065186;0.974854;0.263184
47.365929;0.064209;0.975342;0.264648
47.463470;0.065186;0.973877;0.268066
47.463612;0.065674;0.979248;0.272705
47.463787;0.068604;0.974365;0.270508
47.463894;0.065186;0.978271;0.268066
47.560577;0.064453;0.974609;0.265869
47.560719;0.062500;0.976318;0.269775
47.560814;0.067139;0.961914;0.274414
47.560898;0.062256;0.977539;0.273193
47.756062;0.067627;0.973145;0.273682
47.756210;0.068604;0.970947;0.274658
47.756302;0.065186;0.972656;0.274170
47.756390;0.064697;0.975586;0.269775
47.853020;0.066162;0.981934;0.268799
47.853111;0.067627;0.973145;0.270020
47.853409;0.064941;0.975342;0.272705
47.853466;0.064453;0.975098;0.275879
47.953781;0.063721;0.972168;0.271729
47.953960;0.069580;0.968506;0.268066
47.954155;0.069336;0.974609;0.268066
47.954247;0.066162;0.975342;0.270996
48.048729;0.069336;0.968018;0.274170
48.048862;0.071777;0.970703;0.274658
48.048958;0.067383;0.973877;0.271729
48.049046;0.068359;0.968506;0.271973
48.633640;0.065186;0.981934;0.267822
48.633793;0.066162;0.972412;0.272217
48.634045;0.071533;0.971680;0.273926
48.634541;0.067627;0.971924;0.271484
48.730965;0.069824;0.977051;0.272949
48.731106;0.067871;0.973389;0.272217
48.731197;0.065918;0.972412;0.270996
48.731285;0.068848;0.972900;0.271729
48.732403;0.068359;0.973389;0.269775
48.732513;0.067871;0.975342;0.270996
48.732597;0.067871;0.970703;0.272705
48.732681;0.067383;0.975342;0.265869
48.828995;0.070312;0.969971;0.267090
48.829102;0.070068;0.975098;0.266357
48.829193;0.065918;0.974121;0.265869
48.829285;0.066406;0.972412;0.269775
48.926033;0.067383;0.972900;0.272461
48.927303;0.068359;0.974609;0.269531
48.927402;0.068848;0.971924;0.268066
48.927490;0.066162;0.975586;0.267090
48.929054;0.068848;0.972168;0.267822
48.929157;0.068848;0.972900;0.265381
48.929245;0.067627;0.980469;0.270020
48.929329;0.067383;0.970215;0.273682
48.930336;0.066895;0.971924;0.268799
48.930439;0.069092;0.979004;0.266357
48.930523;0.073486;0.970703;0.267822
48.930641;0.065186;0.968994;0.269287
49.511341;0.066162;0.969727;0.273193
49.511852;0.066650;0.974121;0.268799
49.511955;0.065430;0.975342;0.269287
49.512180;0.065186;0.973145;0.267578
49.513378;0.066406;0.977051;0.268555
49.513485;0.064697;0.968750;0.270752
49.513569;0.068115;0.977295;0.270508
49.513649;0.064209;0.969482;0.279053
49.608395;0.065674;0.977539;0.267822
49.608513;0.064209;0.978271;0.271973
49.608601;0.065186;0.976074;0.268311
49.608833;0.065186;0.968994;0.269531
49.707798;0.066406;0.976318;0.267334
49.707943;0.066162;0.974854;0.270508
49.708038;0.068115;0.971680;0.268311
49.708126;0.065674;0.974854;0.268799
49.710094;0.066895;0.981201;0.259766
49.710182;0.069336;0.972412;0.268311
49.710266;0.063721;0.974365;0.269531
49.710346;0.066162;0.975098;0.266357
49.803013;0.065918;0.975586;0.268066
49.803146;0.065674;0.972900;0.270020
49.803238;0.063477;0.977051;0.266602
49.803326;0.061035;0.974609;0.267578
49.804253;0.063965;0.972168;0.270264
49.804356;0.066162;0.974854;0.266602
49.804440;0.066650;0.977783;0.271973
49.804523;0.066406;0.976318;0.269531
50.096050;0.063477;0.973389;0.268555
50.096535;0.063232;0.976318;0.269287
50.096634;0.062744;0.971191;0.272217
50.096737;0.064453;0.967773;0.271484
50.098591;0.064697;0.979248;0.271240
50.098679;0.065186;0.974365;0.267822
50.098759;0.068359;0.974365;0.267334
50.098843;0.067627;0.975098;0.267334
50.193241;0.066895;0.975830;0.266357
50.193382;0.064941;0.970703;0.273193
50.193474;0.064941;0.978760;0.269287
50.193562;0.064209;0.971924;0.264893
50.388191;0.065186;0.975098;0.268311
50.388329;0.063232;0.981201;0.266846
50.388420;0.064941;0.975586;0.270752
50.388508;0.066406;0.971680;0.275635
50.486275;0.065186;0.973145;0.272705
50.486458;0.066406;0.975342;0.268799
50.486790;0.061768;0.960449;0.270996
50.486851;0.064209;0.972900;0.272705
50.585243;0.064941;0.979248;0.274658
50.585384;0.065918;0.969482;0.273926
50.585476;0.065186;0.975098;0.275879
50.585564;0.065674;0.967041;0.271484
50.778412;0.064941;0.966797;0.274414
50.778564;0.065186;0.977051;0.270752
50.778656;0.066162;0.973633;0.271484
50.778744;0.067871;0.970215;0.276855
50.876392;0.064209;0.972412;0.273926
50.876541;0.064453;0.968262;0.270508
50.876637;0.066406;0.983643;0.267090
50.876724;0.066162;0.976074;0.273193
50.973473;0.063965;0.973145;0.275635
50.973625;0.068115;0.968750;0.276855
50.973793;0.067383;0.969727;0.276367
50.973881;0.065674;0.973877;0.273682
51.071526;0.066162;0.973877;0.271973
51.071644;0.067139;0.970703;0.273193
51.071735;0.068359;0.977051;0.272705
51.071823;0.068604;0.969971;0.276611
51.656639;0.065186;0.971191;0.277832
51.656784;0.063477;0.970947;0.277344
51.656876;0.063965;0.973633;0.274170
51.656963;0.062988;0.975342;0.271240
51.754818;0.065186;0.977051;0.270752
51.754963;0.066895;0.972656;0.276611
51.755058;0.067139;0.971191;0.273438
51.755142;0.066162;0.970459;0.271973
51.850204;0.065918;0.975342;0.268799
51.850346;0.062012;0.977783;0.269531
51.850441;0.064209;0.968018;0.272461
51.850529;0.061523;0.962891;0.277100
51.852482;0.066650;0.974854;0.268555
51.852581;0.068359;0.984131;0.267822
51.852734;0.062744;0.979492;0.268311
51.852818;0.063721;0.975098;0.266357
51.948055;0.063965;0.976074;0.265137
51.948353;0.065674;0.976562;0.268799
51.948452;0.065186;0.966553;0.267090
51.948536;0.067871;0.982910;0.260010
52.046440;0.064209;0.967773;0.271973
52.046581;0.063965;0.977051;0.267578
52.046677;0.059326;0.973389;0.271973
52.046761;0.062256;0.970459;0.271484
52.048923;0.064453;0.966309;0.267334
52.049015;0.064453;0.978027;0.268311
52.049633;0.061768;0.972900;0.269043
52.049725;0.058838;0.973877;0.267334
52.143085;0.060303;0.970947;0.270752
52.143223;0.061768;0.972656;0.271484
52.143314;0.061768;0.977783;0.272217
52.143398;0.062500;0.975830;0.271973
52.240917;0.060791;0.975342;0.266357
52.241051;0.062012;0.975098;0.267334
52.241142;0.061768;0.972168;0.266602
52.241230;0.062500;0.972900;0.266602
52.338223;0.063721;0.978271;0.274658
52.338371;0.062988;0.974854;0.268311
52.338463;0.062988;0.974609;0.270264
52.338547;0.062256;0.973389;0.270752
52.533989;0.061035;0.973389;0.268799
52.534130;0.059326;0.967773;0.272461
52.534222;0.066895;0.970459;0.273438
52.534306;0.059570;0.973877;0.265625
52.630871;0.061768;0.979980;0.266846
52.630993;0.059326;0.974365;0.270508
52.631172;0.064209;0.967041;0.270752
52.631260;0.060791;0.970215;0.271484
52.729107;0.063232;0.983643;0.275635
52.729443;0.063965;0.972168;0.273193
52.729542;0.061279;0.973389;0.270996
52.729626;0.063721;0.974854;0.268799
52.825951;0.064453;0.971924;0.271729
52.826084;0.062012;0.976318;0.271973
52.826176;0.063477;0.976318;0.274170
52.826263;0.062012;0.980713;0.275391
53.412430;0.065918;0.969971;0.280762
53.412552;0.062744;0.969238;0.275635
53.412647;0.061768;0.975098;0.270996
53.412987;0.061035;0.979004;0.272705
53.508251;0.058594;0.971191;0.279785
53.508400;0.061523;0.978271;0.275146
53.508492;0.064209;0.967041;0.273193
53.508579;0.068848;0.971191;0.268799
53.605579;0.065918;0.977051;0.272217
53.606060;0.067383;0.971924;0.273682
53.606159;0.068359;0.968994;0.271729
53.606247;0.069336;0.969482;0.273193
53.607391;0.065674;0.972168;0.271973
53.607498;0.063721;0.973877;0.271484
53.607578;0.064941;0.974121;0.270264
53.607662;0.063721;0.976562;0.272217
53.707649;0.066650;0.970947;0.273193
53.707764;0.064941;0.972656;0.272705
53.707958;0.062988;0.971436;0.273193
53.708050;0.064453;0.973145;0.273193
53.712379;0.065430;0.975586;0.269531
53.712475;0.069092;0.966553;0.274658
53.712559;0.065186;0.968750;0.276611
53.712643;0.064453;0.978027;0.274414
53.801033;0.057861;0.979248;0.266602
53.801178;0.059570;0.974365;0.265869
53.801270;0.057861;0.981689;0.266357
53.801353;0.055664;0.975342;0.263672
53.898582;0.061035;0.973633;0.269531
53.898705;0.062500;0.972168;0.270264
53.898792;0.061768;0.971436;0.270264
53.898876;0.062012;0.973145;0.267578
53.995777;0.061523;0.971191;0.267822
53.995930;0.062500;0.974121;0.270264
53.996021;0.061523;0.974121;0.271240
53.996105;0.062012;0.971436;0.270508
54.093609;0.061768;0.971924;0.269287
54.093727;0.062256;0.975098;0.268311
54.093815;0.063965;0.976074;0.266602
54.093903;0.064209;0.977051;0.267090
54.679230;0.062988;0.972900;0.267334
54.679352;0.063721;0.958984;0.272461
54.679443;0.055664;0.981201;0.264160
54.679531;0.058838;0.969727;0.264893
54.776920;0.053223;0.975830;0.263672
54.777031;0.053467;0.977051;0.263428
54.777119;0.047852;0.985596;0.262695
54.777203;0.050049;0.977539;0.268555
54.873516;0.051025;0.975586;0.264404
54.873634;0.051514;0.976074;0.264648
54.873726;0.044434;0.978760;0.257324
54.874817;0.044922;0.982666;0.256348
54.971157;0.049072;0.980225;0.261230
54.971298;0.045654;0.977051;0.262939
54.971390;0.047119;0.976807;0.261475
54.971478;0.046631;0.975586;0.263672
55.070110;0.041992;0.979492;0.264893
55.070328;0.040771;0.983154;0.254883
55.070423;0.044189;0.979736;0.261475
55.070507;0.043457;0.980469;0.262695
55.071571;0.042480;0.982422;0.261230
55.071655;0.043701;0.978516;0.261719
55.071732;0.045166;0.978027;0.263184
55.071808;0.041016;0.980469;0.263672
55.165344;0.044189;0.970215;0.265625
55.165470;0.048828;0.968994;0.270264
55.165565;0.050293;0.973877;0.271973
55.165649;0.048828;0.976074;0.270508
55.167297;0.049561;0.975586;0.270020
55.167385;0.049805;0.976562;0.266846
55.167465;0.050049;0.973145;0.269287
55.167549;0.047852;0.976807;0.268799
55.263763;0.050293;0.974365;0.268066
55.263882;0.047607;0.977295;0.272949
55.263973;0.050781;0.976318;0.270508
55.264057;0.049805;0.977539;0.269775
55.361549;0.051270;0.977539;0.268311
55.361671;0.050049;0.975830;0.269531
55.361759;0.050781;0.973877;0.272705
55.361847;0.051514;0.973145;0.273682
55.555946;0.048096;0.976074;0.270752
55.556091;0.051514;0.967285;0.268066
55.556187;0.049805;0.978760;0.270752
55.556271;0.050781;0.978271;0.272461
55.653812;0.052490;0.969727;0.275146
55.653946;0.051270;0.972412;0.276367
55.654041;0.051514;0.974121;0.274414
55.654125;0.049805;0.973877;0.272705
55.750843;0.047607;0.976807;0.270264
55.750992;0.050049;0.975342;0.268066
55.751083;0.051758;0.973877;0.270020
55.751171;0.053467;0.974854;0.271484
55.848785;0.053467;0.972900;0.268799
55.848907;0.050781;0.975830;0.271240
55.848995;0.050049;0.971680;0.272705
55.849079;0.051514;0.971924;0.272217
56.434311;0.052002;0.973633;0.272217
56.434456;0.051758;0.976562;0.272949
56.434547;0.052734;0.974121;0.271729
56.438251;0.053955;0.970947;0.269043
56.440269;0.057129;0.971436;0.268555
56.440353;0.054688;0.974854;0.268311
56.440437;0.053711;0.967773;0.270996
56.441090;0.049072;0.977295;0.270264
56.531338;0.053467;0.979248;0.268799
56.531601;0.049316;0.996094;0.266357
56.531746;0.053467;0.987061;0.266357
56.531834;0.035645;0.983398;0.257080
56.628345;0.045654;0.982178;0.265381
56.628494;0.055176;0.975098;0.267090
56.628590;0.072266;0.966797;0.279541
56.628677;0.052979;0.965576;0.262695
56.631245;0.053711;0.977295;0.267334
56.631355;0.054443;0.976318;0.270996
56.631443;0.057129;0.973389;0.267578
56.631523;0.057617;0.974854;0.267822
56.631607;0.057861;0.972900;0.271729
56.631725;0.055420;0.977295;0.268799
56.631805;0.052979;0.980957;0.264893
56.631889;0.055176;0.978516;0.267334
57.214340;0.054688;0.976074;0.266602
57.214699;0.054932;0.973877;0.268555
57.214798;0.057129;0.972656;0.268555
57.214882;0.054199;0.975098;0.265869
57.310150;0.056885;0.977539;0.266846
57.310295;0.049316;0.988037;0.258301
57.310390;0.057861;0.975830;0.268311
57.310474;0.056885;0.973389;0.268311
57.408695;0.057617;0.973633;0.265137
57.408836;0.057373;0.975342;0.266602
57.408928;0.057617;0.979980;0.266357
57.409012;0.055908;0.974121;0.266602
57.507793;0.055420;0.976318;0.266113
57.507919;0.057861;0.977295;0.265869
57.508011;0.053711;0.981201;0.261719
57.508099;0.055176;0.975830;0.270020
57.605145;0.056152;0.975098;0.266602
57.605270;0.054688;0.974609;0.262939
57.605362;0.055908;0.966553;0.270752
57.605446;0.054932;0.962646;0.270996
57.607723;0.051514;0.975830;0.268799
57.607834;0.055908;0.977051;0.269043
57.607918;0.055908;0.979736;0.272461
57.607998;0.061279;0.975586;0.273682
57.700668;0.057617;0.980469;0.267334
57.701164;0.058105;0.969971;0.271973
57.701260;0.058350;0.973145;0.269775
57.701344;0.055664;0.975342;0.269043
57.705441;0.056396;0.977783;0.272461
57.705547;0.059082;0.973145;0.272705
57.705627;0.057617;0.978516;0.269775
57.706123;0.058105;0.973877;0.271484
57.798317;0.058838;0.977783;0.269531
57.798550;0.061279;0.984863;0.272949
57.798645;0.058105;0.978027;0.268799
57.798733;0.053955;0.966309;0.277588
57.896141;0.053955;0.982666;0.272217
57.896259;0.062500;0.970459;0.276855
57.896347;0.061279;0.975586;0.272949
57.896435;0.061768;0.968018;0.276123
58.091667;0.060547;0.969238;0.277588
58.091797;0.061523;0.979980;0.275146
58.091892;0.062012;0.968506;0.276123
58.091980;0.066406;0.970215;0.275146
58.190208;0.059326;0.986084;0.268799
58.190350;0.067871;0.973389;0.274414
58.190445;0.062500;0.967041;0.274658
58.191097;0.063965;0.974121;0.274170
58.286903;0.061768;0.976318;0.275146
58.287018;0.059082;0.976562;0.275635
58.287109;0.061523;0.980225;0.272461
58.287209;0.069092;0.971191;0.275391
58.871815;0.061279;0.975098;0.275879
58.871960;0.059082;0.968262;0.275635
58.872051;0.063721;0.975586;0.276123
58.872135;0.063721;0.971680;0.272217
58.874100;0.059814;0.967041;0.270508
58.874771;0.059814;0.980225;0.270508
58.874874;0.062012;0.963379;0.276855
58.874958;0.065918;0.967041;0.276611
58.968666;0.063477;0.978516;0.274902
58.968803;0.062500;0.971924;0.274414
58.969639;0.063477;0.975586;0.277100
58.969730;0.061279;0.971191;0.272705
59.066097;0.062500;0.975830;0.273682
59.066227;0.061768;0.974365;0.272217
59.066319;0.061523;0.970703;0.273193
59.066406;0.060547;0.973633;0.272217
59.164158;0.060791;0.973145;0.272949
59.164303;0.063965;0.976807;0.273438
59.164661;0.062988;0.972168;0.272949
59.164757;0.063965;0.971924;0.272705
59.166683;0.061523;0.967773;0.276855
59.166798;0.062256;0.972656;0.274170
59.166882;0.059570;0.973633;0.270264
59.166962;0.062500;0.970947;0.273193
59.167042;0.059814;0.974121;0.273682
59.167126;0.060791;0.968506;0.276367
59.167210;0.063232;0.975830;0.271973
59.167290;0.063721;0.975830;0.277588
59.359108;0.062988;0.973877;0.272949
59.359253;0.061768;0.972412;0.273682
59.359344;0.063232;0.971680;0.275635
59.359432;0.060547;0.973389;0.272217
59.457912;0.063477;0.972656;0.273926
59.458057;0.063232;0.969727;0.279053
59.458767;0.063965;0.969482;0.276123
59.458969;0.062012;0.976807;0.271973
59.553715;0.059326;0.972900;0.272705
59.553848;0.059570;0.974365;0.269775
59.553955;0.058350;0.968994;0.275635
59.554043;0.062500;0.967041;0.275879
59.651150;0.057373;0.975830;0.270996
59.651264;0.064941;0.965332;0.273682
59.651360;0.054932;0.989502;0.260498
59.651443;0.061279;0.968750;0.273926
60.333801;0.063232;0.976074;0.266846
60.333946;0.060547;0.975098;0.270020
60.334042;0.060303;0.981201;0.271240
60.334126;0.059814;0.962402;0.277588
60.431381;0.056885;0.973877;0.270020
60.431530;0.058838;0.968506;0.270264
60.431622;0.060547;0.976562;0.271973
60.431709;0.061035;0.975830;0.273926
60.528210;0.060547;0.972412;0.269531
60.528366;0.063477;0.975586;0.274414
60.528477;0.062256;0.971680;0.273438
60.528561;0.059082;0.975830;0.269531
60.529751;0.060547;0.975098;0.270020
60.529861;0.060791;0.973633;0.273438
60.529949;0.061523;0.969971;0.275879
60.530285;0.056396;0.978760;0.271729
60.627079;0.060059;0.973145;0.270264
60.627197;0.058594;0.970947;0.272217
60.627289;0.056396;0.975830;0.270020
60.627373;0.059570;0.974609;0.271240
60.628239;0.061523;0.972168;0.272217
60.628391;0.062256;0.974365;0.273193
60.628479;0.067139;0.973633;0.274170
60.628563;0.061035;0.974609;0.271973
60.726475;0.056396;0.970459;0.272461
60.726574;0.062500;0.973633;0.271484
60.726662;0.062500;0.971924;0.272217
60.726746;0.062500;0.973633;0.270996
60.727768;0.064697;0.974854;0.272461
60.727867;0.060303;0.974609;0.271973
60.727951;0.062500;0.972168;0.272949
60.728031;0.063721;0.974121;0.269775
60.821400;0.061523;0.974609;0.269775
60.821537;0.060303;0.970947;0.275635
60.821629;0.057129;0.981689;0.267822
60.821712;0.062744;0.971436;0.271484
60.918278;0.061768;0.974854;0.270508
60.918415;0.059814;0.973633;0.269287
60.918510;0.067871;0.968262;0.274414
60.918594;0.061279;0.967773;0.274170
61.113323;0.062256;0.978027;0.272217
61.113464;0.064941;0.972168;0.275391
61.113556;0.062744;0.972656;0.270264
61.113644;0.063232;0.972900;0.271973
61.212349;0.064697;0.974609;0.269531
61.212490;0.062988;0.977051;0.271484
61.212582;0.065430;0.973389;0.270264
61.212666;0.061523;0.975098;0.272949
61.308903;0.064941;0.968994;0.272461
61.309044;0.062012;0.977051;0.271973
61.309265;0.062988;0.973877;0.273438
61.309353;0.063477;0.972412;0.274658
61.505093;0.063965;0.969971;0.275635
61.505241;0.063477;0.977295;0.272949
61.505337;0.065918;0.977295;0.265625
61.505421;0.070068;0.978271;0.267090
61.601246;0.066650;0.979248;0.272949
61.601376;0.065186;0.976807;0.273193
61.601471;0.063721;0.974365;0.272217
61.601555;0.064697;0.974121;0.268311
61.795712;0.063477;0.976562;0.269531
61.795856;0.064697;0.973145;0.269531
61.796291;0.063721;0.975342;0.268311
61.796383;0.062256;0.978271;0.270996
61.797596;0.052490;0.985840;0.266357
61.797707;0.063477;0.958008;0.278076
61.797791;0.058350;0.980469;0.269531
61.797874;0.060547;0.969727;0.269531
61.991619;0.060791;0.975098;0.269775
61.991753;0.060547;0.976318;0.270508
61.991844;0.064453;0.968750;0.275635
61.991932;0.064209;0.970703;0.277100
62.088444;0.061279;0.974854;0.269531
62.088581;0.062500;0.975342;0.269775
62.088673;0.062500;0.974609;0.265869
62.088760;0.058350;0.972412;0.270264
62.185722;0.061768;0.972168;0.270020
62.189133;0.061035;0.978027;0.271240
62.189232;0.063721;0.976318;0.268311
62.189320;0.061279;0.971680;0.268555
62.380814;0.059814;0.972656;0.269287
62.380955;0.060547;0.973145;0.268799
62.381046;0.059326;0.973877;0.270264
62.381134;0.056641;0.973145;0.271240
62.478832;0.059814;0.974121;0.268799
62.478951;0.059326;0.976074;0.270752
62.479042;0.059082;0.975098;0.266846
62.479126;0.061768;0.973633;0.269775
62.576141;0.062988;0.975586;0.268311
62.576279;0.058350;0.972412;0.272461
62.576370;0.061523;0.971924;0.274902
62.576458;0.058838;0.975342;0.267090
62.673752;0.062012;0.972412;0.268066
62.674339;0.060303;0.972412;0.267822
62.674431;0.057373;0.970215;0.270264
62.674515;0.060303;0.969727;0.272705
63.272896;0.059326;0.977539;0.270508
63.272942;0.067871;0.974365;0.276855
63.272980;0.057861;0.976074;0.267090
63.273018;0.056885;0.975830;0.265137
63.354523;0.057861;0.975586;0.266602
63.354588;0.058105;0.980469;0.268311
63.354618;0.056885;1.003906;0.270020
63.354656;0.062500;0.989746;0.268555
63.454975;0.057617;0.974609;0.269531
63.455219;0.059326;0.970459;0.271240
63.455296;0.059082;0.975342;0.267578
63.455364;0.059570;0.976318;0.268555
63.550545;0.060547;0.970947;0.274902
63.550652;0.059814;0.976562;0.273926
63.550709;0.059814;0.973633;0.270996
63.550762;0.060791;0.974365;0.269531
63.648499;0.059814;0.974609;0.270996
63.648636;0.061768;0.970459;0.275391
63.648743;0.064209;0.970703;0.276855
63.648830;0.059082;0.964844;0.284668
63.746357;0.060303;0.982178;0.257568
63.748947;0.059814;0.970215;0.274658
63.749058;0.061768;0.967285;0.274170
63.749146;0.057617;0.972656;0.270752
63.843372;0.057861;0.979248;0.272217
63.843513;0.059326;0.971680;0.273682
63.843609;0.062012;0.970459;0.274902
63.843811;0.057617;0.971680;0.272949
63.942486;0.058594;0.974365;0.270508
63.942577;0.060547;0.973145;0.269287
63.942680;0.059326;0.975342;0.270264
63.942822;0.061523;0.970703;0.275146
64.040161;0.058350;0.973389;0.272705
64.040268;0.061279;0.969238;0.267578
64.040359;0.062500;0.974121;0.268066
64.040443;0.058838;0.978027;0.269043
64.041679;0.059082;0.970459;0.272461
64.041779;0.060791;0.972168;0.271729
64.041862;0.062256;0.974854;0.270752
64.041946;0.064453;0.975586;0.267578
64.135864;0.061768;0.972168;0.268311
64.136009;0.061279;0.971924;0.270508
64.136101;0.062744;0.972656;0.269531
64.136185;0.060303;0.973145;0.271240
64.233818;0.061768;0.972412;0.271484
64.233955;0.061279;0.975098;0.272217
64.234055;0.061035;0.973633;0.268799
64.234138;0.061279;0.972412;0.272217
64.330894;0.061035;0.971924;0.269043
64.331039;0.063232;0.971924;0.274414
64.331131;0.059326;0.974365;0.271240
64.331215;0.061035;0.974854;0.267090
64.536034;0.062012;0.972412;0.266602
64.536140;0.061035;0.973877;0.268311
64.536224;0.057129;0.974854;0.268799
64.536766;0.058350;0.974609;0.270508
64.623207;0.060547;0.972412;0.273438
64.623314;0.060547;0.975342;0.269775
64.623383;0.058838;0.976074;0.268799
64.623444;0.057861;0.977051;0.270996
64.721107;0.061523;0.970947;0.268066
64.721268;0.058838;0.972656;0.272461
64.721359;0.058350;0.967285;0.272705
64.721443;0.056641;0.987061;0.267578
64.916260;0.052002;0.980469;0.265869
64.916382;0.052490;0.969727;0.270508
64.916473;0.057373;0.980469;0.268311
64.916557;0.058838;0.974854;0.266846
65.013100;0.053711;0.971924;0.269287
65.013222;0.056396;0.977539;0.270264
65.013283;0.053467;0.975098;0.264404
65.013336;0.060059;0.974121;0.266113
65.111084;0.056885;0.978271;0.267090
65.111221;0.055908;0.973877;0.267334
65.111313;0.056641;0.974365;0.269531
65.111404;0.056396;0.976807;0.269287
65.210403;0.057617;0.975342;0.266846
65.210526;0.055664;0.976074;0.267822
65.210617;0.057129;0.976074;0.267578
65.210701;0.057373;0.975098;0.265869
65.794426;0.054443;0.976318;0.270996
65.794579;0.054932;0.971680;0.268555
65.794983;0.056641;0.974854;0.268311
65.795074;0.055908;0.974609;0.266113
65.796524;0.059082;0.974365;0.267090
65.796631;0.058350;0.979736;0.268311
65.796715;0.055420;0.976318;0.267822
65.796799;0.055664;0.973633;0.270752
65.891899;0.054932;0.975586;0.270264
65.892365;0.057617;0.974609;0.267334
65.892464;0.055908;0.974854;0.266602
65.892548;0.055420;0.977051;0.268555
65.894058;0.054932;0.971191;0.269043
65.894165;0.054932;0.975586;0.270020
65.894249;0.059814;0.975830;0.268311
65.894333;0.060791;0.967041;0.269287
65.989349;0.055420;0.984375;0.265381
65.989494;0.056152;0.978027;0.265137
65.989586;0.057129;0.975098;0.264893
65.989685;0.056396;0.979492;0.266113
65.989769;0.057617;0.976562;0.265137
65.989853;0.054932;0.977051;0.263916
65.989937;0.055908;0.975830;0.262939
65.990227;0.055420;0.979980;0.264648
66.085938;0.056885;0.978271;0.264404
66.086082;0.057617;0.978027;0.265625
66.086182;0.059082;0.969727;0.269043
66.086266;0.058838;0.975342;0.268066
66.377983;0.057129;0.976562;0.267090
66.378120;0.057129;0.974609;0.265625
66.378212;0.056152;0.974854;0.265137
66.378304;0.059082;0.973633;0.268311
66.380035;0.057861;0.978516;0.271240
66.380135;0.061523;0.977783;0.268311
66.380226;0.061279;0.975342;0.266846
66.380310;0.057373;0.976318;0.268799
66.475845;0.060059;0.971680;0.267334
66.475990;0.058838;0.974365;0.267578
66.476082;0.057861;0.976318;0.269287
66.476173;0.057373;0.971924;0.272705
66.670616;0.058105;0.973877;0.270996
66.670692;0.057861;0.976074;0.267822
66.670731;0.058838;0.976074;0.269775
66.670769;0.062256;0.977051;0.268066
66.768608;0.060303;0.975830;0.270508
66.769035;0.060303;0.969727;0.273682
66.769150;0.058105;0.975830;0.270508
66.769257;0.060547;0.970459;0.269043
66.867393;0.062012;0.973389;0.265869
66.867516;0.059326;0.975342;0.267090
66.867607;0.060303;0.972900;0.270508
66.867691;0.059082;0.973389;0.270996
66.963539;0.061523;0.973877;0.270264
66.963699;0.061279;0.974121;0.269043
66.963791;0.060791;0.974121;0.268311
66.963875;0.061279;0.971436;0.268066
67.158409;0.062012;0.971191;0.268066
67.158554;0.061279;0.974609;0.268066
67.158661;0.062500;0.973389;0.266846
67.158745;0.062500;0.974854;0.268066
67.257172;0.061279;0.972412;0.267334
67.257263;0.061035;0.973877;0.269287
67.257347;0.063965;0.976807;0.267334
67.257721;0.061279;0.972900;0.269775
67.355675;0.059570;0.972656;0.272217
67.355804;0.060791;0.971436;0.269287
67.355896;0.062012;0.969727;0.267822
67.355988;0.060547;0.974121;0.267090
67.548660;0.061035;0.973633;0.268311
67.548813;0.059082;0.970215;0.272217
67.548904;0.060303;0.977539;0.270996
67.548988;0.059570;0.973145;0.271484
67.646721;0.061279;0.972412;0.269043
67.646828;0.058838;0.973877;0.265381
67.646927;0.061523;0.971436;0.268311
67.647011;0.060547;0.973145;0.268555
67.743477;0.059082;0.973389;0.269043
67.743622;0.060303;0.973145;0.270020
67.743713;0.059082;0.973633;0.269287
67.743797;0.060059;0.973877;0.269775
67.841545;0.062744;0.974609;0.266846
67.841667;0.059326;0.974854;0.268066
67.841751;0.059082;0.973877;0.271484
67.841835;0.058838;0.975830;0.269531
68.426231;0.058838;0.974854;0.265381
68.426361;0.061279;0.973633;0.266113
68.426453;0.058350;0.976074;0.267578
68.426544;0.057617;0.974854;0.267822
68.523308;0.059082;0.973877;0.268799
68.523460;0.057617;0.978760;0.270996
68.523552;0.061279;0.974365;0.268555
68.523636;0.057861;0.976807;0.269775
68.621353;0.058594;0.975098;0.266113
68.621483;0.061035;0.972900;0.267578
68.621574;0.059814;0.974609;0.267334
68.621666;0.058594;0.975586;0.268555
68.718620;0.056885;0.975830;0.267822
68.718773;0.055176;0.974854;0.268311
68.718864;0.058594;0.975830;0.267822
68.718948;0.060303;0.975342;0.266357
68.913292;0.058594;0.973633;0.269043
68.913780;0.058350;0.974365;0.270020
68.913879;0.059326;0.974609;0.267578
68.913963;0.058594;0.971680;0.270020
68.915115;0.058594;0.974121;0.267334
68.915222;0.056152;0.974854;0.268311
68.915298;0.058105;0.972168;0.272705
68.915382;0.059082;0.974609;0.269531
69.011032;0.058350;0.977051;0.270752
69.011177;0.059570;0.973145;0.268555
69.011269;0.056885;0.975342;0.269775
69.011360;0.057373;0.974365;0.269531
69.109741;0.056152;0.976074;0.269775
69.109863;0.056396;0.973389;0.270264
69.109955;0.058594;0.973877;0.269287
69.110039;0.058105;0.973877;0.270508
69.209244;0.058350;0.974121;0.270020
69.209373;0.061035;0.971924;0.268799
69.209473;0.055176;0.977295;0.270752
69.210274;0.056152;0.975342;0.272705
69.212585;0.057373;0.974609;0.270996
69.212700;0.058350;0.976074;0.267090
69.212784;0.060303;0.973389;0.267334
69.212868;0.059326;0.974121;0.267822
69.303467;0.057373;0.974609;0.269043
69.304024;0.057861;0.975342;0.269287
69.304123;0.058594;0.975586;0.271240
69.304207;0.058594;0.973389;0.270752
69.401459;0.057129;0.975586;0.268799
69.401604;0.058105;0.974609;0.267822
69.401703;0.058838;0.973145;0.269531
69.401787;0.058105;0.975830;0.269775
69.498657;0.058350;0.974609;0.270508
69.498802;0.057617;0.974365;0.270508
69.498894;0.056885;0.974121;0.270996
69.498978;0.059082;0.974365;0.271973
69.693794;0.059082;0.976318;0.269775
69.693932;0.059570;0.972900;0.272949
69.694023;0.059814;0.969238;0.276123
69.694107;0.062012;0.971436;0.273193
69.791473;0.062744;0.965820;0.271240
69.791611;0.060059;0.972168;0.272217
69.791702;0.058594;0.972656;0.272949
69.791786;0.061035;0.966064;0.275635
69.889183;0.060303;0.975098;0.273926
69.889313;0.060547;0.976562;0.271729
69.889404;0.062988;0.976074;0.267090
69.889488;0.062988;0.974854;0.264893
70.083572;0.062500;0.973145;0.268066
70.083717;0.061279;0.973633;0.270508
70.083809;0.061768;0.973145;0.269531
70.083893;0.062256;0.974121;0.268555
70.181038;0.058594;0.976074;0.269775
70.181175;0.059570;0.974609;0.269287
70.181274;0.062256;0.971924;0.269775
70.181374;0.060303;0.972900;0.270020
70.278755;0.058350;0.972412;0.273193
70.278885;0.061035;0.976562;0.271484
70.278984;0.061279;0.972900;0.267822
70.279068;0.063477;0.974121;0.267334
70.378662;0.058350;0.976318;0.267822
70.378807;0.055908;0.972900;0.270996
70.378906;0.061035;0.971191;0.272705
70.378990;0.058838;0.975830;0.269775
70.963058;0.060547;0.974854;0.270752
70.963203;0.060059;0.973145;0.269775
70.963364;0.060303;0.972412;0.268799
70.963448;0.061035;0.972656;0.268555
70.964256;0.059570;0.974854;0.268799
70.964340;0.058350;0.973389;0.270508
70.964417;0.056641;0.975342;0.268799
70.964493;0.056152;0.976074;0.270264
71.059769;0.059082;0.973389;0.270508
71.059906;0.059082;0.975342;0.266846
71.059998;0.059814;0.974365;0.269531
71.060081;0.058105;0.972168;0.273438
71.062164;0.058594;0.974854;0.267334
71.062256;0.058838;0.974854;0.267822
71.062340;0.060059;0.973145;0.268311
71.062424;0.056152;0.974854;0.269287
71.156334;0.056396;0.971924;0.272217
71.156456;0.059814;0.975342;0.269531
71.156548;0.059326;0.975098;0.267578
71.156639;0.059570;0.974609;0.267822
71.157921;0.058350;0.974609;0.267334
71.158035;0.057129;0.974854;0.264648
71.158119;0.059082;0.976318;0.267334
71.158203;0.058350;0.974609;0.267090
71.253365;0.057129;0.981445;0.266357
71.253502;0.058838;0.973145;0.269043
71.253593;0.058594;0.976562;0.267822
71.253677;0.057861;0.975830;0.265381
71.840218;0.057617;0.978027;0.269043
71.840309;0.055664;0.972412;0.271240
71.840401;0.057617;0.976074;0.268311
71.840660;0.058105;0.974854;0.265869
71.842216;0.059814;0.973877;0.265869
71.842300;0.056885;0.978027;0.267578
71.842384;0.057617;0.973389;0.267822
71.842484;0.061279;0.972900;0.267822
71.940186;0.057373;0.978027;0.270020
71.940300;0.060303;0.975098;0.267578
71.940392;0.058594;0.974609;0.268066
71.940674;0.058105;0.977051;0.267578
72.034103;0.057617;0.974609;0.265137
72.034401;0.059326;0.975098;0.267334
72.034500;0.059326;0.975586;0.268066
72.034584;0.057129;0.978271;0.271240
72.131721;0.059814;0.972656;0.267578
72.131851;0.058350;0.975342;0.268311
72.131950;0.058594;0.976074;0.266602
72.132034;0.056641;0.974365;0.270752
72.134315;0.058838;0.972900;0.275879
72.134399;0.056396;0.974365;0.269775
72.134483;0.061035;0.972168;0.267334
72.134567;0.059570;0.974609;0.266846
72.135536;0.056396;0.974121;0.268555
72.135643;0.058594;0.971436;0.271729
72.135719;0.061035;0.974365;0.270996
72.135811;0.061035;0.974365;0.271484
72.423370;0.062012;0.975342;0.270020
72.424049;0.061035;0.971924;0.268066
72.424156;0.059326;0.971191;0.270020
72.424240;0.060059;0.975098;0.269287
72.425392;0.058838;0.972412;0.271729
72.425499;0.062744;0.972656;0.269043
72.425583;0.060547;0.971924;0.269043
72.425659;0.061768;0.973877;0.267578
72.522430;0.061279;0.972900;0.266113
72.522552;0.061035;0.974365;0.267822
72.522636;0.061279;0.971680;0.270508
72.522720;0.064941;0.975098;0.267334
72.716080;0.063477;0.972900;0.265625
72.716232;0.062256;0.975098;0.264404
72.716324;0.062012;0.971191;0.268066
72.716415;0.061035;0.971680;0.271240
72.813919;0.062256;0.975830;0.271729
72.814041;0.061523;0.973389;0.270020
72.814133;0.059814;0.975342;0.268799
72.814217;0.058350;0.975830;0.267822
72.912621;0.063965;0.973633;0.267090
72.913750;0.064941;0.975586;0.267334
72.914841;0.064453;0.974121;0.268066
72.914932;0.064453;0.974121;0.267334
73.106277;0.061768;0.974121;0.269531
73.106407;0.062256;0.974365;0.269531
73.106499;0.061768;0.975098;0.268555
73.106583;0.062012;0.974854;0.267578
73.203743;0.060303;0.970947;0.272949
73.203865;0.060791;0.972900;0.270264
73.203979;0.062012;0.974365;0.266357
73.204063;0.061768;0.974365;0.267090
73.301132;0.059570;0.977051;0.267334
73.301277;0.059814;0.970459;0.271484
73.301369;0.060791;0.971680;0.269531
73.301453;0.061279;0.975342;0.271240
73.398865;0.062500;0.975342;0.269775
73.398987;0.060791;0.974854;0.268799
73.399071;0.062500;0.972412;0.267578
73.399277;0.060303;0.973145;0.269775
73.984344;0.060791;0.972412;0.269287
73.984497;0.059082;0.972656;0.269775
73.984596;0.060303;0.973145;0.268799
73.984680;0.058838;0.975586;0.268311
74.081467;0.061523;0.973633;0.267090
74.081604;0.060791;0.976074;0.268066
74.082039;0.058594;0.974121;0.270264
74.082130;0.059082;0.973877;0.270996
74.083954;0.061279;0.974121;0.266357
74.084038;0.058838;0.974365;0.265381
74.084122;0.058838;0.975830;0.264648
74.084282;0.058594;0.971680;0.268311
74.178909;0.061279;0.973389;0.266602
74.179466;0.060791;0.976074;0.268555
74.179565;0.060059;0.975098;0.268799
74.179657;0.057861;0.975098;0.266357
74.181389;0.058838;0.973389;0.267334
74.181473;0.058350;0.977051;0.268066
74.181557;0.057617;0.976807;0.267578
74.181641;0.059570;0.973633;0.268066
74.182564;0.058838;0.975342;0.268066
74.182671;0.058838;0.976562;0.266602
74.182755;0.059570;0.975342;0.267578
74.182838;0.060303;0.976807;0.264648
74.278885;0.058838;0.974609;0.268799
74.279121;0.057373;0.972412;0.271729
74.279213;0.059326;0.974365;0.265381
74.279297;0.060791;0.971924;0.266602
74.470688;0.056641;0.976074;0.266602
74.470802;0.056152;0.974121;0.268066
74.470863;0.060059;0.971680;0.267578
74.470917;0.059570;0.976807;0.269775
74.568680;0.058838;0.976318;0.269043
74.568832;0.061279;0.973389;0.267822
74.568916;0.060791;0.975586;0.267334
74.569000;0.060059;0.977051;0.267090
74.666023;0.056641;0.974121;0.269043
74.666161;0.057129;0.969971;0.274414
74.666260;0.059814;0.969482;0.268799
74.666344;0.062012;0.973145;0.263916
74.861298;0.063965;0.976562;0.267334
74.861427;0.060059;0.978760;0.270508
74.861526;0.059814;0.979248;0.271973
74.861610;0.061035;0.972656;0.274170
75.038071;0.059326;0.975830;0.270996
75.038261;0.057861;0.975342;0.266113
75.038368;0.058350;0.969238;0.264648
75.038452;0.054443;0.978271;0.265625
75.425468;0.057617;0.975830;0.266602
75.425621;0.058594;0.973633;0.268555
75.425720;0.059082;0.975342;0.269287
75.437263;0.059814;0.972412;0.270020
75.437492;0.062744;0.973145;0.268799
75.437576;0.064453;0.974121;0.269043
75.437653;0.063477;0.971924;0.271973
75.437729;0.064697;0.973633;0.271240
75.749084;0.061279;0.971680;0.270020
75.749229;0.060303;0.973145;0.270752
75.749329;0.060547;0.973145;0.269531
75.749420;0.062744;0.972900;0.267334
75.840149;0.060547;0.970947;0.267578
75.840317;0.059570;0.974121;0.268799
75.840416;0.059082;0.975342;0.271729
75.840508;0.060547;0.975586;0.270264
75.964905;0.060303;0.971680;0.271484
75.965050;0.062012;0.971436;0.268799
75.965141;0.058350;0.972656;0.271484
75.965233;0.062988;0.970459;0.274170
76.031700;0.060791;0.974609;0.271729
76.031815;0.061523;0.974854;0.270996
76.031906;0.060547;0.974854;0.269775
76.031998;0.062012;0.973877;0.267090
76.129364;0.061279;0.972900;0.268799
76.129807;0.063232;0.976074;0.268311
76.129921;0.060059;0.971680;0.270508
76.130005;0.057861;0.971924;0.270996
76.227173;0.058350;0.972900;0.271240
76.227310;0.058838;0.975342;0.269043
76.227409;0.061523;0.972656;0.270508
76.227493;0.060791;0.974365;0.268311
76.421677;0.059814;0.972656;0.271729
76.421837;0.060791;0.972168;0.274170
76.421928;0.059326;0.976562;0.268555
76.422005;0.061768;0.971436;0.267822
76.520264;0.059082;0.973877;0.269043
76.520409;0.059082;0.972168;0.268799
76.520859;0.057861;0.970459;0.272217
76.520950;0.058350;0.977051;0.270996
76.521034;0.061035;0.974854;0.271973
76.521126;0.059814;0.973389;0.270996
76.521210;0.060547;0.973389;0.268066
76.521294;0.059326;0.973389;0.269775
76.523918;0.059326;0.974365;0.269775
76.524010;0.057373;0.973877;0.270996
76.524261;0.059082;0.971191;0.274170
76.524345;0.057129;0.974854;0.271240
76.908058;0.055908;0.976074;0.268311
76.908226;0.061035;0.971924;0.268311
76.908325;0.061279;0.974121;0.267334
76.908409;0.058105;0.976562;0.270508
76.909851;0.060059;0.970703;0.273926
76.910149;0.057861;0.976074;0.268311
76.910240;0.059082;0.975586;0.268066
76.910324;0.061035;0.971680;0.267822
76.910995;0.058105;0.976318;0.267090
76.911102;0.061035;0.967773;0.268799
76.911186;0.058594;0.973877;0.269531
76.911270;0.058838;0.977539;0.270264
77.006935;0.059570;0.976318;0.268311
77.007103;0.059326;0.975098;0.267334
77.007195;0.059570;0.975098;0.267090
77.007286;0.058105;0.973389;0.267334
77.103668;0.062256;0.970947;0.267578
77.103813;0.059570;0.979004;0.270752
77.103943;0.056641;0.979248;0.272217
77.104050;0.056396;0.977783;0.270752
77.209579;0.058594;0.974854;0.268555
77.209717;0.058350;0.972656;0.270020
77.209808;0.058594;0.974854;0.267334
77.209892;0.057617;0.974854;0.272217
77.298965;0.058594;0.971924;0.273926
77.299133;0.056885;0.973877;0.269775
77.299232;0.061523;0.969971;0.268555
77.299370;0.060303;0.975342;0.269043
77.493858;0.059082;0.974121;0.269775
77.494179;0.062988;0.972412;0.272949
77.494370;0.061768;0.980225;0.272705
77.494461;0.062744;0.978271;0.273438
77.592072;0.060791;0.966064;0.270996
77.592209;0.057861;0.969727;0.273682
77.592300;0.057861;0.970703;0.276611
77.592392;0.056641;0.976807;0.273193
77.688721;0.058350;0.975342;0.272217
77.688866;0.060059;0.970947;0.272949
77.688957;0.060547;0.968750;0.270020
77.689064;0.063232;0.976318;0.268555
77.883644;0.061035;0.980225;0.270996
77.883781;0.062500;0.975586;0.272217
77.883888;0.060791;0.969971;0.272461
77.883980;0.059814;0.969238;0.275391
77.983902;0.059814;0.973145;0.274414
77.984253;0.059570;0.970215;0.270752
77.984947;0.063232;0.970215;0.267822
77.985046;0.059326;0.977539;0.269531
78.078728;0.058838;0.972412;0.271484
78.078865;0.061279;0.970703;0.274414
78.078957;0.062500;0.975586;0.272705
78.079170;0.061768;0.975098;0.269775
78.176910;0.062744;0.972900;0.270020
78.177032;0.061523;0.973877;0.271973
78.177124;0.059814;0.973877;0.271240
78.177216;0.058594;0.971680;0.271973
78.763367;0.060059;0.971436;0.271484
78.763519;0.059814;0.973389;0.271729
78.763611;0.059082;0.973633;0.270752
78.763695;0.060059;0.975830;0.270020
78.861725;0.061768;0.973145;0.270020
78.862534;0.060791;0.971680;0.271240
78.862839;0.057617;0.974121;0.264160
78.862930;0.055176;0.975830;0.278320
78.958656;0.057861;0.977783;0.281006
78.958893;0.063477;0.967285;0.268311
78.959206;0.066406;0.969727;0.268311
78.959648;0.068115;0.972656;0.269775
79.054787;0.064697;0.971191;0.272705
79.054916;0.060303;0.973877;0.270752
79.055008;0.059326;0.977295;0.271973
79.055092;0.057129;0.973389;0.271484
79.056114;0.054688;0.976074;0.270752
79.056213;0.056152;0.973633;0.269775
79.056297;0.060059;0.973877;0.269043
79.056381;0.062500;0.972656;0.267090
79.152855;0.061523;0.973633;0.270752
79.153297;0.057129;0.978271;0.271484
79.153397;0.059326;0.970215;0.271484
79.153481;0.062500;0.967529;0.274170
79.155243;0.061279;0.972656;0.271973
79.155342;0.061523;0.973389;0.272461
79.155426;0.061523;0.967529;0.273193
79.155510;0.056885;0.975586;0.271484
79.248550;0.056152;0.978271;0.272217
79.248695;0.061279;0.972168;0.267090
79.248779;0.060059;0.973877;0.266602
79.248871;0.058350;0.971924;0.270264
79.346352;0.059326;0.975342;0.268311
79.346474;0.055664;0.978516;0.271729
79.346565;0.057617;0.977295;0.269775
79.346657;0.056641;0.976074;0.269287
79.931992;0.057861;0.974854;0.267090
79.932137;0.060303;0.972656;0.267090
79.932236;0.060547;0.973877;0.268799
79.932320;0.060059;0.972656;0.270264
79.934097;0.058350;0.973877;0.268555
79.934204;0.056396;0.976318;0.270264
79.934288;0.058350;0.976318;0.269287
79.934372;0.061523;0.971924;0.268311
80.049545;0.060791;0.974609;0.267822
80.049660;0.056641;0.974365;0.270508
80.049751;0.057861;0.975586;0.270264
80.049835;0.058105;0.975830;0.266846
80.126404;0.058838;0.972900;0.268799
80.126564;0.058350;0.977295;0.269531
80.126778;0.055908;0.975342;0.269775
80.126877;0.060547;0.972900;0.272461
80.129181;0.060059;0.974854;0.270752
80.129288;0.060059;0.972656;0.273438
80.129417;0.057129;0.974121;0.269775
80.129517;0.058105;0.969727;0.272461
80.129601;0.058594;0.974121;0.270020
80.129684;0.057129;0.978271;0.271240
80.129768;0.060059;0.977295;0.270264
80.129852;0.062500;0.972900;0.268555
80.223831;0.059082;0.973633;0.270508
80.223961;0.060059;0.974609;0.270508
80.224052;0.058594;0.974854;0.268799
80.224136;0.059814;0.974854;0.267822
80.419220;0.058838;0.973145;0.271240
80.419487;0.060547;0.973145;0.275635
80.419640;0.061523;0.971436;0.270264
80.419731;0.063477;0.970459;0.268066
80.516167;0.062744;0.973877;0.266113
80.516312;0.061768;0.972900;0.269287
80.516403;0.060791;0.969971;0.270508
80.516510;0.062500;0.972168;0.269287
80.613953;0.062500;0.972900;0.268799
80.614075;0.062256;0.972900;0.267578
80.614166;0.059570;0.975586;0.269531
80.614250;0.062256;0.974854;0.268555
80.711266;0.061768;0.971436;0.270020
80.711464;0.059814;0.970703;0.271484
80.711555;0.060303;0.969971;0.273193
80.711639;0.059570;0.973877;0.272705
80.921783;0.060303;0.975342;0.270996
80.921928;0.062988;0.970947;0.267334
80.922020;0.060303;0.975586;0.268555
80.922112;0.059326;0.974609;0.271973
81.004051;0.059326;0.977539;0.271973
81.004204;0.057861;0.972412;0.270508
81.004311;0.061279;0.969238;0.266846
81.004410;0.057617;0.976807;0.269287
81.101311;0.057373;0.971191;0.272461
81.101479;0.062744;0.968506;0.273193
81.101570;0.059082;0.972900;0.272949
81.101685;0.059082;0.976074;0.271484
81.296089;0.060059;0.972900;0.270264
81.296234;0.061523;0.974854;0.266113
81.296333;0.062500;0.975342;0.268066
81.296417;0.058594;0.976807;0.271484
81.490410;0.057617;0.975586;0.268311
81.490616;0.059814;0.972900;0.269531
81.490799;0.061035;0.970215;0.268311
81.491013;0.057373;0.969971;0.270996
81.492111;0.056396;0.979004;0.272705
81.492249;0.058594;0.974609;0.273438
81.492340;0.059326;0.975342;0.269287
81.492424;0.061279;0.972412;0.266113
81.589188;0.062744;0.972168;0.266113
81.589310;0.060059;0.975342;0.267334
81.589401;0.059814;0.972168;0.269531
81.589485;0.058350;0.970215;0.271240
82.174149;0.057617;0.974121;0.272705
82.174423;0.058350;0.974609;0.270020
82.174522;0.059082;0.973877;0.270020
82.174606;0.062256;0.971680;0.268555
82.270844;0.059570;0.972656;0.265381
82.270988;0.061035;0.977051;0.267334
82.271080;0.059814;0.974854;0.270264
82.271172;0.057617;0.975098;0.270996
82.368393;0.056152;0.972656;0.271729
82.368530;0.062988;0.971924;0.268311
82.368629;0.062988;0.977295;0.267822
82.368713;0.060791;0.974365;0.270508
82.465904;0.058105;0.971680;0.272949
82.466393;0.058594;0.971924;0.270264
82.466484;0.060791;0.973389;0.269043
82.466881;0.059082;0.977295;0.268555
82.468872;0.057373;0.972656;0.269043
82.468971;0.058350;0.969482;0.270996
82.469055;0.057861;0.976807;0.271729
82.469139;0.060303;0.976562;0.270752
82.470169;0.060547;0.976807;0.269775
82.470268;0.061279;0.974609;0.266357
82.470352;0.060547;0.975586;0.263916
82.470436;0.059814;0.975098;0.267090
82.564301;0.058350;0.976074;0.268555
82.564430;0.057129;0.976562;0.270996
82.564529;0.058350;0.973877;0.269287
82.564613;0.060059;0.971924;0.266846
82.661491;0.057373;0.974121;0.266602
82.661613;0.058838;0.969238;0.271484
82.661713;0.060547;0.972656;0.267822
82.661797;0.062500;0.976074;0.268066
82.758919;0.061035;0.977783;0.269043
82.759163;0.059082;0.973633;0.268311
82.759254;0.055664;0.970947;0.269775
82.759338;0.055176;0.970947;0.270752
82.953133;0.056152;0.978271;0.270508
82.953262;0.060059;0.978271;0.268066
82.953354;0.059570;0.977539;0.267090
82.953438;0.056152;0.985352;0.264893
83.051086;0.062500;0.974609;0.265625
83.051231;0.066895;0.957031;0.272705
83.051323;0.056152;0.980225;0.264404
83.051407;0.055908;0.980957;0.266113
83.149239;0.055420;0.975586;0.268799
83.149384;0.057129;0.975586;0.262207
83.149475;0.058594;0.988281;0.267090
83.149559;0.058594;0.970215;0.270264
83.247040;0.056396;0.974854;0.265381
83.247154;0.054688;0.974854;0.264160
83.247246;0.056885;0.971680;0.264648
83.247330;0.050049;0.984863;0.262207
83.441154;0.052490;0.978760;0.269287
83.441299;0.056885;0.975342;0.267578
83.441391;0.059326;0.974609;0.266846
83.441475;0.058105;0.977295;0.266846
83.538757;0.055664;0.976074;0.265869
83.538895;0.053223;0.974121;0.262939
83.538986;0.052734;0.976318;0.262695
83.539192;0.057373;0.977051;0.266602
83.636185;0.057861;0.978027;0.268311
83.636337;0.058838;0.977295;0.266846
83.636429;0.058105;0.978027;0.267090
83.636505;0.058350;0.977783;0.266846
83.928688;0.055908;0.975098;0.266113
83.928833;0.057129;0.974365;0.267334
83.928932;0.057617;0.976074;0.264160
83.929016;0.056641;0.975098;0.262939
84.026062;0.058350;0.976074;0.264404
84.026566;0.055664;0.975342;0.265381
84.026657;0.056396;0.976074;0.266357
84.026749;0.057617;0.979248;0.269043
84.027878;0.057617;0.976318;0.267822
84.027985;0.055664;0.976074;0.268555
84.028069;0.058105;0.974121;0.266846
84.028152;0.058105;0.975586;0.265625
84.124062;0.057129;0.977783;0.268066
84.124199;0.057617;0.974365;0.266602
84.124290;0.057617;0.976562;0.267334
84.124382;0.058594;0.975586;0.266846
84.806564;0.056885;0.977783;0.265869
84.806702;0.057861;0.975098;0.266602
84.806793;0.054932;0.971680;0.272461
84.806877;0.057617;0.977295;0.269775
84.902954;0.058350;0.972900;0.264160
84.903435;0.059326;0.974365;0.263916
84.903534;0.058350;0.977295;0.266602
84.903618;0.050781;0.969971;0.253906
84.904709;0.051514;0.981934;0.261230
84.904816;0.064453;0.994873;0.291748
84.904907;0.076172;1.007324;0.271973
84.904984;0.091064;0.977539;0.326660
85.002296;0.055908;0.942383;0.250732
85.002396;-0.014648;0.958008;0.273926
85.002487;0.173584;0.659668;0.397461
85.002571;0.089600;0.758789;0.362061
85.099144;0.064453;1.125977;0.182617
85.099319;0.056641;1.147461;0.127686
85.099411;0.065186;1.080811;0.052490
85.099503;0.032959;1.132324;0.132080
85.196175;0.083008;1.062500;0.210205
85.196617;0.034912;0.907959;0.269531
85.196747;0.082520;0.737793;0.375000
85.196854;0.118164;0.990479;0.388916
85.295395;0.124023;0.996826;0.316162
85.295532;0.112549;0.967285;0.226562
85.295631;0.108398;0.977539;0.260254
85.296066;0.115234;0.971680;0.295410
85.297340;0.109863;0.946045;0.282471
85.297432;0.110352;0.939697;0.278320
85.297508;0.101807;0.961426;0.275146
85.297585;0.078613;1.000732;0.248535
85.297661;0.056885;0.993408;0.258545
85.297752;0.061523;0.898438;0.252441
85.297836;0.089355;0.962891;0.254639
85.297913;0.102783;1.025391;0.244385
85.391579;0.100342;1.009766;0.209961
85.391701;0.096191;1.005127;0.181641
85.391792;0.099365;1.003174;0.200195
85.391876;0.101562;0.995361;0.206543
85.979454;0.097900;0.982910;0.202148
85.979614;0.094971;0.985840;0.199707
85.979706;0.096924;0.992676;0.191650
85.979797;0.098389;0.984863;0.197510
85.983536;0.091309;0.978271;0.200684
85.983643;0.085205;0.987549;0.201416
85.983719;0.097168;0.986816;0.195312
85.983795;0.103516;0.984375;0.188965
86.170670;0.107422;0.975098;0.187744
86.170982;0.098877;0.992920;0.187012
86.171089;0.091797;1.000732;0.181152
86.171173;0.100342;0.997070;0.164795
86.171898;0.112061;0.987305;0.148438
86.172012;0.104248;0.996094;0.155518
86.172104;0.088135;1.016602;0.156738
86.172188;0.084717;1.012695;0.158203
86.365974;0.094971;1.000732;0.153320
86.366440;0.107422;0.992188;0.147705
86.366531;0.104980;0.995361;0.150391
86.366623;0.091309;1.001709;0.150391
86.368996;0.090576;0.997314;0.155762
86.369095;0.100586;0.990723;0.161865
86.369179;0.102539;0.991699;0.163818
86.369263;0.100586;0.986328;0.166016
86.369347;0.093506;0.991455;0.160156
86.369431;0.094971;1.000488;0.165771
86.369652;0.099854;1.000000;0.164551
86.369736;0.107422;0.996338;0.163086
86.463661;0.110596;0.990967;0.166504
86.463806;0.107910;0.987549;0.171387
86.463898;0.104980;0.985352;0.171875
86.463997;0.101562;0.986572;0.167725
86.561874;0.099609;0.995605;0.166992
86.561996;0.099365;0.997314;0.160156
86.562088;0.099121;0.988281;0.160156
86.562172;0.093994;0.993652;0.161133
86.658615;0.089600;1.000488;0.158203
86.658745;0.091797;0.991699;0.157959
86.658836;0.092529;0.995850;0.154541
86.658928;0.097900;0.998535;0.153809
86.854019;0.097900;0.998535;0.153076
86.854164;0.096680;1.001953;0.159912
86.854393;0.098389;0.996094;0.164062
86.854492;0.104248;0.991455;0.157227
86.951866;0.109863;0.983154;0.156250
86.952003;0.105225;0.992432;0.161133
86.952095;0.104980;0.998779;0.164795
86.952194;0.109619;0.996338;0.164795
87.048752;0.113037;0.988770;0.167969
87.048882;0.111816;0.991699;0.163086
87.048973;0.107910;0.996338;0.161621
87.049179;0.102051;1.001953;0.168213
87.146935;0.105713;0.989502;0.165527
87.147049;0.105957;0.981201;0.158936
87.147141;0.102539;0.996094;0.153320
87.147224;0.104492;1.009277;0.146729
87.731766;0.113037;1.024414;0.150635
87.732231;0.104492;0.993896;0.172852
87.732346;0.105957;0.974121;0.178711
87.732430;0.105225;0.968750;0.197266
87.733673;0.094238;0.983154;0.198242
87.733780;0.107910;0.987793;0.183838
87.733864;0.127197;0.989502;0.168701
87.733948;0.130127;0.979248;0.168457
87.829414;0.117432;0.988037;0.174316
87.829552;0.102539;0.996826;0.181152
87.829643;0.092041;0.997070;0.160645
87.829727;0.097168;0.986084;0.166504
87.926430;0.101807;0.981689;0.160156
87.926552;0.096191;0.999756;0.156738
87.926643;0.093750;1.004883;0.156738
87.926735;0.082031;0.998779;0.146484
88.024338;0.083740;0.992920;0.133789
88.024452;0.086914;0.985107;0.126221
88.024559;0.080811;1.006592;0.123779
88.024643;0.071045;1.020020;0.123535
88.122086;0.065430;1.010010;0.116211
88.122223;0.063965;1.007568;0.103271
88.122314;0.055420;1.018066;0.105469
88.122398;0.060059;1.018066;0.104492
88.124191;0.072021;1.012695;0.088867
88.124283;0.071045;1.030273;0.089111
88.124374;0.060303;1.012939;0.098633
88.124451;0.059326;0.991455;0.120117
88.218651;0.060791;0.981934;0.141602
88.218788;0.076904;0.988281;0.139893
88.218880;0.097900;0.995117;0.128662
88.218964;0.106934;1.013672;0.121338
88.316307;0.109131;1.008057;0.129639
88.316444;0.105469;0.979004;0.130371
88.316536;0.076660;0.967041;0.123779
88.316620;0.072266;0.998779;0.108887
88.414474;0.060303;1.014893;0.106689
88.414597;0.056641;1.016846;0.094482
88.414688;0.046143;1.023682;0.064453
88.414772;0.036377;1.037598;0.047363
88.608841;0.035645;1.013916;0.051025
88.608978;0.056152;0.997559;0.072510
88.609245;0.062988;0.990479;0.078369
88.609406;0.059814;1.012207;0.084229
88.728271;0.065186;1.026123;0.079590
88.728424;0.062256;1.023438;0.065430
88.728523;0.072021;1.022461;0.060547
88.728615;0.074463;1.010254;0.057861
88.803940;0.060547;1.006104;0.060547
88.804085;0.049316;1.007324;0.073975
88.804176;0.045654;1.005615;0.084961
88.804260;0.043213;1.005127;0.085693
88.902840;0.033203;1.016357;0.081543
88.902946;0.041504;1.018555;0.077881
88.903030;0.051270;1.015137;0.078125
88.903320;0.080566;1.007568;0.079590
89.486816;0.089111;1.011475;0.085938
89.487297;0.100342;1.022461;0.081787
89.487396;0.128906;1.015381;0.091064
89.487488;0.146240;0.987305;0.104248
89.488640;0.139160;0.979492;0.105469
89.488747;0.151367;0.962891;0.150391
89.488831;0.123047;0.968994;0.146973
89.488914;0.102783;1.000000;0.128174
89.584084;0.125488;0.958984;0.187744
89.584213;0.088623;0.923340;0.138428
89.584312;0.074707;1.022217;0.079834
89.584541;0.079102;1.018311;0.068115
89.681519;0.048096;1.091309;-0.020508
89.681969;0.086182;0.999023;-0.058350
89.682076;0.089111;1.090820;-0.058594
89.682159;0.127441;1.034424;-0.034668
89.684341;0.139648;0.998047;0.032471
89.684433;0.138916;0.972412;0.029297
89.684517;0.141357;0.982178;0.043457
89.684601;0.129639;1.007812;0.021729
89.685539;0.130859;1.008789;0.023682
89.685638;0.147949;0.996094;0.044189
89.685722;0.136230;0.991699;0.041504
89.685806;0.138184;0.982910;0.027344
89.876167;0.120850;1.004883;0.019775
89.876305;0.089355;1.033203;-0.010986
89.876396;0.105469;1.011475;0.009277
89.876480;0.105469;0.977783;0.045166
89.974022;0.100586;0.986816;0.009766
89.974144;0.125244;1.017578;-0.003418
89.974236;0.120117;1.044922;-0.053955
89.974319;0.123047;1.025879;-0.055420
90.071930;0.130615;0.989746;0.004150
90.072052;0.143066;1.010742;0.021240
90.072144;0.152832;1.020264;0.008057
90.072227;0.141846;0.970703;0.035156
90.169235;0.131592;0.979980;0.046387
90.169365;0.129395;0.985840;0.075439
90.169456;0.129639;0.973877;0.057861
90.169540;0.120361;0.970703;0.044434
90.754303;0.112305;1.050049;-0.012939
90.754425;0.100586;1.014893;0.007568
90.754517;0.108154;0.998535;-0.013672
90.754601;0.122559;1.000732;-0.015869
90.851501;0.121338;1.023193;-0.005371
90.851631;0.125488;1.012939;0.006592
90.851852;0.128418;1.009521;0.010742
90.851944;0.125488;1.009277;-0.000244
90.948654;0.121582;1.004395;-0.002197
90.948792;0.119629;1.009766;0.009277
90.948883;0.120361;0.986328;0.033447
90.948967;0.121094;1.009521;0.022217
91.046944;0.123291;1.017334;0.006104
91.047066;0.123779;1.004395;0.021973
91.047173;0.131836;1.011475;0.019775
91.047256;0.129150;1.004395;0.010498
91.144043;0.124023;0.995605;0.020752
91.144165;0.124023;0.999023;0.029297
91.144249;0.120850;1.003418;0.044922
91.144341;0.122803;0.994629;0.038086
91.241852;0.121582;0.995117;0.031494
91.241982;0.126465;1.013184;0.002686
91.242081;0.106201;1.000000;0.032471
91.242165;0.111328;1.009521;0.010742
91.339996;0.104980;1.015625;0.002930
91.340271;0.105957;1.014893;0.015381
91.340363;0.107178;1.010986;0.013672
91.340454;0.111084;1.023926;0.000244
91.485756;0.118896;1.000244;0.039062
91.485893;0.122070;0.998291;0.044678
91.486000;0.115234;1.002930;0.029785
91.486092;0.126953;0.989990;0.041504
91.487000;0.125732;0.998291;0.043213
91.487129;0.122314;0.985107;0.047119
91.487221;0.108887;1.020508;0.000488
91.487396;0.103760;1.036621;-0.023193
91.487488;0.110352;1.032959;-0.039551
91.487572;0.118164;0.997803;-0.018311
91.487656;0.126953;1.008057;-0.007324
91.487740;0.118652;0.979004;0.012451
91.631325;0.145020;0.996826;-0.013916
91.631493;0.138916;0.998291;0.014893
91.631592;0.137207;1.028076;0.011230
91.631676;0.134766;1.009033;0.009521
91.728760;0.131104;0.989014;0.007812
91.728912;0.120605;1.016357;-0.006104
91.729004;0.103271;1.019287;-0.009277
91.729317;0.089844;1.011719;-0.002441
91.826454;0.101074;1.008301;-0.004639
91.827179;0.121826;1.016846;-0.004883
91.827461;0.127197;1.019531;-0.009521
91.827576;0.129883;1.013672;-0.009033
92.021271;0.142090;0.981201;0.022461
92.021423;0.148193;0.993652;0.043213
92.021515;0.158447;1.006104;0.055420
92.021599;0.143066;0.996826;0.044189
92.118729;0.129883;1.006592;0.021729
92.118881;0.117920;1.017578;0.000732
92.118973;0.114502;1.009033;0.017090
92.119057;0.124268;0.995117;0.009766
92.216110;0.136230;0.989502;0.046143
92.216255;0.143799;0.972656;0.056396
92.216354;0.146973;0.991699;0.035156
92.216438;0.139893;1.023438;0.025146
92.413040;0.133789;1.013672;0.032959
92.413185;0.125000;0.997314;0.025879
92.413277;0.114258;1.001221;0.019287
92.413368;0.097168;1.013428;0.003662
92.509377;0.080566;1.022949;-0.009521
92.509514;0.091309;1.009521;0.003418
92.509605;0.110352;1.012695;-0.002930
92.509689;0.124756;1.011719;0.002930
92.606201;0.125977;1.010498;-0.001709
92.606453;0.131592;0.996338;0.005371
92.606544;0.137451;1.005615;0.024170
92.606628;0.135742;1.017334;0.037842
92.704056;0.127930;1.000244;0.029297
92.704178;0.115479;1.004395;0.013184
92.704262;0.110596;1.004883;-0.000732
92.704346;0.104980;1.017334;0.003662
93.289261;0.112061;1.003174;0.010254
93.289734;0.125977;0.986084;0.012695
93.289833;0.133301;0.983887;0.025146
93.289925;0.136963;1.005615;0.033691
93.291595;0.135986;1.016357;0.038574
93.291710;0.136963;1.002197;0.027832
93.291794;0.131104;1.000000;0.001953
93.291878;0.117188;1.009033;-0.002930
93.386757;0.095947;1.012695;-0.003662
93.387230;0.086426;1.014648;-0.002686
93.387329;0.095215;1.011230;-0.000488
93.387421;0.105957;1.016113;-0.002441
93.390221;0.121094;1.021973;-0.005371
93.390343;0.126953;1.008301;0.001465
93.390427;0.135742;0.988281;0.019775
93.390511;0.144531;1.003662;0.018311
93.483498;0.147461;1.001709;0.033203
93.483963;0.143555;0.964111;0.039551
93.484070;0.131104;1.036377;-0.010986
93.484154;0.110840;1.021973;-0.018311
93.485703;0.112793;0.993408;0.003662
93.485809;0.116211;0.978516;0.013184
93.485893;0.122559;1.008789;0.012207
93.485977;0.127197;1.021729;0.027344
93.581451;0.123535;1.006592;0.017334
93.581589;0.113525;0.999512;0.001221
93.581680;0.101562;1.001221;-0.012939
93.581772;0.090332;1.017578;-0.011963
93.776215;0.078613;1.032227;-0.005615
93.776352;0.084717;1.006836;-0.001953
93.776443;0.098145;1.002441;0.003906
93.776527;0.110107;1.014160;-0.005859
93.874039;0.118896;1.041016;-0.044434
93.874168;0.135010;0.992432;0.004150
93.874260;0.152588;0.985840;0.025635
93.874344;0.154785;0.991699;0.047852
93.971191;0.144775;1.013672;0.026611
93.971321;0.127197;1.019775;0.004395
93.971413;0.111084;0.998535;0.001221
93.971497;0.100586;0.987549;0.002930
94.166718;0.080811;1.014404;-0.009521
94.166847;0.094482;0.999023;0.005127
94.166939;0.109375;0.973877;0.021973
94.167023;0.128906;1.006836;-0.001953
94.264053;0.121582;1.020996;0.019531
94.264183;0.116699;1.007812;0.029541
94.264275;0.107422;0.998047;0.027832
94.264359;0.095947;1.010986;0.015381
94.361244;0.086426;1.008301;0.014893
94.361382;0.084961;1.015381;0.023193
94.361473;0.087402;1.014648;-0.002197
94.361557;0.100098;1.015869;-0.016113
94.458740;0.109619;1.010986;-0.003418
94.458878;0.111816;1.011475;-0.001709
94.458984;0.114258;1.014648;-0.009521
94.459198;0.126953;0.975586;0.041260
94.653793;0.124268;1.017334;0.007812
94.653931;0.116699;1.019043;-0.006104
94.654022;0.110596;0.994873;0.022461
94.654106;0.120361;1.003174;0.032959
94.751770;0.124023;0.986572;0.039551
94.751892;0.144775;0.947754;0.057129
94.751984;0.135254;1.014160;0.001221
94.752068;0.117676;0.995117;0.021729
94.848770;0.106445;1.021240;-0.005127
94.848915;0.095703;1.028809;-0.031250
94.849007;0.094727;0.989746;0.013184
94.849091;0.106689;1.011230;0.018066
95.044113;0.087891;1.020020;-0.004883
95.044250;0.091553;1.012207;-0.008789
95.044357;0.102783;1.020508;0.011475
95.044441;0.105713;1.023438;-0.035156
95.141792;0.113770;1.003906;-0.011230
95.141914;0.128662;0.993408;0.018799
95.142006;0.145264;0.991211;0.044434
95.142090;0.155518;0.983154;0.052490
95.238876;0.137451;0.994873;0.031250
95.239014;0.119629;1.002686;0.010010
95.239105;0.105469;1.010986;-0.019287
95.239189;0.101074;1.019775;-0.020752
95.433975;0.106445;0.993652;-0.005127
95.434113;0.116455;0.997314;0.007812
95.434212;0.117188;1.009766;0.006104
95.434296;0.119873;1.008301;-0.002686
95.532051;0.109131;1.010742;-0.011963
95.532196;0.095459;1.011475;-0.017090
95.532295;0.081787;1.015137;-0.018555
95.532379;0.081543;1.003418;-0.014404
95.628845;0.080566;1.025391;-0.019043
95.628983;0.091309;1.009277;-0.008057
95.629196;0.103760;1.000732;0.002930
95.629288;0.109375;1.005371;-0.015137
95.726761;0.110840;1.019287;-0.025391
95.726875;0.113525;1.004395;-0.016357
95.726967;0.116943;1.008545;-0.003418
95.727509;0.111328;1.013916;-0.004150
95.921555;0.100098;1.006592;-0.006836
95.921677;0.096436;0.999512;-0.017578
95.921768;0.097656;1.004639;-0.020996
95.921860;0.093994;1.021484;-0.031982
96.018867;0.096191;1.001465;-0.019775
96.019119;0.114746;0.996338;-0.010742
96.019218;0.107666;1.027100;-0.024902
96.019302;0.111328;1.026123;-0.014404
96.116623;0.101074;0.997314;0.010498
96.116737;0.090576;0.993652;0.009277
96.116829;0.081299;1.008057;-0.003662
96.116920;0.070312;1.020996;-0.016113
96.701759;0.074951;1.013916;-0.000977
96.701904;0.083008;1.004150;0.010254
96.702156;0.093994;1.006104;0.009033
96.702255;0.103760;1.005371;0.009521
96.799484;0.110596;1.002930;0.000244
96.799622;0.110107;1.009277;-0.002930
96.799713;0.109863;1.025146;0.000000
96.799797;0.103271;1.012695;-0.002686
96.896088;0.101807;1.008057;0.011230
96.896233;0.097656;1.009766;0.009766
96.896332;0.083252;1.018066;-0.023682
96.896416;0.088623;1.011230;-0.000488
96.897346;0.093506;0.993652;0.008789
96.897453;0.095947;1.008545;0.007080
96.897537;0.099121;1.009033;0.015625
96.897621;0.100830;1.016602;0.004883
96.994308;0.104736;1.015625;0.001221
96.994431;0.119385;0.998047;0.015381
96.994514;0.120361;1.005127;0.019531
96.994606;0.119873;1.008301;0.020752
97.091843;0.113525;1.012451;0.007324
97.091972;0.116211;0.996338;0.016113
97.092209;0.110352;1.005615;0.010010
97.092300;0.111328;1.009033;0.016357
97.095306;0.106934;1.005615;0.008057
97.095413;0.106201;1.015625;0.001465
97.095497;0.104492;1.010742;0.011230
97.095581;0.105225;1.003174;0.012207
97.188782;0.108154;1.006592;0.004150
97.188919;0.109375;1.008301;0.002197
97.189125;0.106201;1.006592;0.003418
97.189224;0.105225;1.013672;0.002930
97.286690;0.105957;1.015137;0.001221
97.286819;0.108643;1.008789;0.005371
97.286911;0.113281;0.996582;0.006836
97.287003;0.105469;0.998779;0.002686
97.383820;0.099609;1.011230;0.001221
97.383965;0.101074;1.005127;0.006104
97.384056;0.104980;1.004883;0.005371
97.384140;0.108398;1.011719;-0.001465
97.579330;0.114990;1.012451;-0.008789
97.579475;0.122314;1.010986;-0.020752
97.579567;0.123291;0.991699;0.005371
97.579659;0.118652;1.007080;-0.001709
97.676605;0.112305;1.012939;0.002686
97.676735;0.104248;1.018066;0.000244
97.676826;0.091553;1.018799;-0.015381
97.676910;0.094727;1.013428;-0.017822
97.773819;0.100098;1.008057;0.010742
97.773956;0.105713;0.999512;0.005127
97.774048;0.116211;0.996338;0.003662
97.774132;0.122070;1.002441;0.018799
97.871605;0.109131;1.005859;-0.002686
97.871727;0.105957;1.016113;-0.017578
97.871819;0.101074;1.014648;-0.013672
97.871902;0.103027;1.009277;0.002686
98.456635;0.103516;1.006104;-0.009766
98.456757;0.106689;1.006592;-0.007568
98.456848;0.102295;1.010498;-0.008057
98.456940;0.098389;1.009521;-0.010010
98.554123;0.095947;1.008301;-0.010986
98.554253;0.102295;1.011475;-0.007568
98.554352;0.102783;1.011230;-0.010986
98.554443;0.102783;1.012451;-0.015625
98.651611;0.103516;1.009521;-0.004883
98.651741;0.101074;1.004639;-0.012207
98.651833;0.100830;1.008545;-0.014160
98.651917;0.098633;1.010010;-0.017334
98.749153;0.102783;1.008789;-0.010254
98.749283;0.101562;1.007568;-0.011963
98.749374;0.098877;1.006104;-0.017090
98.749458;0.098389;1.010498;-0.018066
98.845573;0.101318;1.014404;-0.016357
98.845711;0.098877;1.006104;-0.018555
98.846146;0.102539;1.009033;-0.013672
98.846237;0.096191;1.017822;-0.024658
98.847176;0.103760;1.012451;-0.009033
98.847275;0.107178;0.997559;0.004883
98.847382;0.112305;0.993164;0.018799
98.847466;0.104980;1.006592;-0.002197
98.944901;0.108643;1.010742;0.001709
98.945015;0.104248;1.020508;-0.016113
98.945107;0.102539;1.004883;-0.001221
98.945335;0.107666;1.006592;0.000732
98.947716;0.105957;1.012695;-0.004639
98.947823;0.105713;1.001465;0.000488
98.947906;0.098877;1.010254;-0.008057
98.947990;0.101074;1.007812;-0.010010
99.041405;0.101074;1.009277;-0.002930
99.041542;0.103760;1.011230;0.001465
99.041634;0.104980;1.004883;0.002930
99.041718;0.101074;1.013916;-0.002441
99.140694;0.098389;1.005859;-0.003174
99.140785;0.094482;1.019775;-0.011963
99.140869;0.100586;1.002930;0.001709
99.140953;0.102539;0.994141;0.022461
99.724243;0.101074;1.010254;0.004150
99.724380;0.100586;0.997803;-0.002686
99.724464;0.097656;1.010010;-0.010254
99.724556;0.096436;1.014893;-0.015381
99.822075;0.104492;0.995605;0.012939
99.822220;0.102295;1.013428;-0.014160
99.822311;0.101807;1.017578;-0.007324
99.822395;0.093018;1.013916;-0.001465
99.918793;0.099121;0.986084;0.010254
99.919388;0.095459;1.013428;-0.005371
99.919487;0.095215;1.012451;-0.012939
99.919571;0.091553;1.012939;-0.017334
99.921082;0.097900;0.998047;-0.005859
99.921188;0.095947;1.011230;-0.005615
99.921272;0.093018;1.008789;-0.004150
99.921616;0.091309;1.005615;-0.013916
100.017540;0.091309;1.012451;-0.017090
100.017807;0.094727;1.009277;-0.001465
100.017906;0.093750;1.011719;-0.017090
100.017998;0.093018;1.013428;-0.016357
100.019791;0.094238;1.000488;-0.010742
100.019882;0.099854;1.012939;-0.012695
100.019958;0.096191;1.014160;-0.017090
100.020042;0.094971;1.010254;-0.009277
100.020920;0.099854;1.000732;-0.006592
100.021019;0.102783;1.009277;-0.003662
100.021103;0.102295;1.004150;-0.007080
100.021187;0.098877;1.011230;-0.007812
100.211311;0.096191;1.017090;-0.013428
100.211449;0.096924;1.005859;-0.010254
100.211548;0.099121;1.007568;-0.010986
100.211632;0.099854;1.008789;-0.002441
100.309395;0.094482;1.012939;-0.010742
100.309532;0.097168;1.010254;-0.001709
100.309639;0.098145;1.008057;0.005371
100.309723;0.099121;1.011719;0.007812
100.406548;0.094482;1.017090;-0.007324
100.406685;0.102783;1.003662;0.009277
100.406891;0.101318;1.003174;0.007080
100.407036;0.104248;1.007080;0.001465
100.504265;0.103516;1.000488;0.011230
100.504387;0.099854;1.008301;0.001221
100.504478;0.093506;1.003906;-0.011475
100.504562;0.092285;1.010254;-0.011230
101.089722;0.099121;1.013672;-0.009033
101.089859;0.094727;1.013428;-0.023682
101.089951;0.094971;1.018311;-0.014404
101.090034;0.093750;1.006348;-0.010010
101.186287;0.099609;1.009033;-0.013428
101.186424;0.094482;1.010986;-0.018555
101.186668;0.094971;1.009766;-0.009033
101.186760;0.094238;1.008789;-0.013672
101.283188;0.095703;1.011963;-0.012207
101.283676;0.095947;1.010498;-0.009766
101.283775;0.099609;1.006348;-0.010986
101.283867;0.103516;1.011963;-0.007812
101.284813;0.099609;1.000488;-0.003174
101.284920;0.099121;0.995605;-0.006104
101.285011;0.098389;1.018066;-0.009033
101.285095;0.095215;1.024170;-0.017090
101.382462;0.100098;0.999512;-0.005371
101.382919;0.100586;1.007568;0.007080
101.383018;0.098633;1.011963;-0.006836
101.383102;0.101074;1.008301;0.003662
101.384727;0.099121;1.007812;0.004639
101.384834;0.099609;0.996094;0.015137
101.384918;0.099365;0.999268;0.009521
101.385002;0.095947;1.006592;-0.000977
101.479378;0.098633;1.014648;-0.014404
101.479507;0.099365;1.006592;-0.010986
101.479607;0.097656;0.991211;0.013672
101.479691;0.095215;1.015137;-0.009521
101.576370;0.100098;1.011719;-0.012451
101.576515;0.102295;1.002686;0.003662
101.576614;0.094727;1.000732;-0.002686
101.576706;0.092285;1.011475;-0.006592
101.674156;0.093018;1.012695;-0.009277
101.674278;0.096436;1.012695;-0.016846
101.674377;0.102295;1.012207;-0.013916
101.674461;0.097656;1.008301;-0.010254
101.771477;0.094238;1.011719;-0.007324
101.771614;0.094727;1.012695;-0.006592
101.771706;0.095947;1.007812;-0.008789
101.771790;0.096436;1.009033;-0.010010
101.966682;0.100098;1.007812;-0.003174
101.966812;0.100830;1.012207;-0.003662
101.966904;0.098633;1.008301;-0.010010
101.966988;0.100342;1.009521;-0.005371
102.064186;0.106689;1.002930;-0.004395
102.064316;0.100342;1.013916;-0.018066
102.064407;0.103760;1.013428;-0.005371
102.064491;0.104980;1.004639;0.004639
102.161339;0.105469;0.999023;0.000732
102.161476;0.101807;1.016357;0.000488
102.161568;0.098389;1.010986;-0.000244
102.161659;0.099365;1.002930;-0.005615
102.356369;0.099365;1.017578;-0.002930
102.356506;0.101562;1.002930;0.005371
102.356598;0.104980;1.002930;0.011230
102.356682;0.099609;1.011963;0.004883
102.454163;0.099609;1.007324;0.004639
102.454292;0.105469;0.999512;0.016357
102.454384;0.103760;1.012207;0.005371
102.454468;0.102783;1.014648;-0.003418
102.552185;0.106201;1.001709;0.010498
102.552307;0.100830;1.013672;-0.002930
102.552399;0.102783;1.010742;0.003906
102.552483;0.102295;1.004639;0.000244
102.649551;0.101562;1.011719;0.000488
102.649689;0.101318;1.010986;0.003906
102.649780;0.102539;1.003662;0.007568
102.649864;0.102539;1.007080;0.006348
103.234428;0.102051;1.009766;0.006348
103.234581;0.104248;1.009277;0.003662
103.234840;0.103516;1.007568;0.002197
103.234924;0.103760;1.009766;0.004639
103.330750;0.103516;1.008301;0.006104
103.331375;0.102051;1.009766;0.006104
103.331474;0.102051;1.010254;0.006104
103.331581;0.103516;1.008301;0.007324
103.332527;0.101807;1.005859;0.003662
103.332634;0.104736;1.005371;0.002930
103.332718;0.104980;1.010498;0.001953
103.332802;0.104248;1.012695;-0.002686
103.430412;0.104248;1.013916;0.001709
103.430527;0.103760;1.009521;0.004883
103.430618;0.104004;1.008789;-0.000732
103.430702;0.105225;1.006348;-0.001709
103.623566;0.100830;1.009766;0.004639
103.623711;0.102295;1.007812;0.004639
103.623802;0.103516;1.005127;0.007080
103.624252;0.101807;1.012451;0.002441
103.626320;0.104492;1.010742;0.002930
