timestamp;value
-0.620051;0.555000
-0.065051;0.549000
0.483949;0.547000
1.030949;0.548000
1.578949;0.550000
2.128949;0.558000
2.686949;0.563000
3.249949;0.571000
3.820949;0.567000
4.387949;0.571000
4.958949;0.577000
5.535949;0.578000
6.113949;0.567000
6.680949;0.562000
7.242949;0.566000
7.808949;0.567000
8.375949;0.561000
8.936949;0.554000
9.490949;0.550000
10.040949;0.553000
10.593949;0.552000
11.145949;0.552000
11.697949;0.548000
12.245949;0.547000
12.792949;0.555000
13.347949;0.568000
13.915949;0.583000
14.498949;0.586000
15.084949;0.577000
15.661949;0.565000
16.226950;0.561000
16.787949;0.558000
17.345949;0.556000
17.901949;0.547000
18.448950;0.544000
18.992949;0.541000
19.533949;0.548000
20.081949;0.547000
20.628948;0.545000
21.173948;0.551000
21.724949;0.563000
22.287949;0.573000
22.860949;0.570000
23.430948;0.566000
23.996948;0.560000
24.556950;0.554000
25.110949;0.553000
25.663950;0.552000
26.215950;0.554000
26.769949;0.558000
27.327950;0.563000
27.890949;0.580000
28.470949;0.592000
29.062950;0.597000
29.659948;0.590000
30.249949;0.586000
30.835949;0.580000
31.415949;0.587000
32.002949;0.588000
32.590950;0.600000
33.190948;0.598000
33.788948;0.588000
34.376949;0.594000
34.970947;0.596000
35.566948;0.597000
36.163948;0.592000
36.755951;0.615000
37.370949;0.622000
37.992950;0.620000
38.612949;0.628000
39.240948;0.602000
39.842949;0.591000
40.433949;0.580000
41.013950;0.573000
41.586948;0.566000
42.152950;0.562000
42.714951;0.567000
43.281948;0.573000
43.854950;0.579000
44.433949;0.593000
45.026951;0.614000
45.640949;0.625000
46.265949;0.622000
46.887951;0.624000
47.511948;0.620000
48.131950;0.610000
48.741951;0.594000
49.335949;0.581000
49.916950;0.576000
50.492950;0.583000
51.075951;0.572000
51.647949;0.567000
52.214951;0.564000
52.778950;0.573000
53.351948;0.584000
53.935947;0.583000
54.518948;0.584000
55.102951;0.593000
55.695950;0.599000
56.294949;0.595000
56.889950;0.595000
57.484951;0.601000
58.085949;0.601000
58.686951;0.595000
59.281948;0.589000
59.870949;0.588000
60.458950;0.598000
61.056950;0.602000
61.658951;0.601000
62.259949;0.590000
62.849949;0.590000
63.439949;0.592000
64.031952;0.594000
64.625946;0.590000
65.215950;0.585000
65.800949;0.590000
66.390945;0.597000
66.987946;0.600000
67.587952;0.588000
68.175949;0.583000
68.758949;0.584000
69.342949;0.582000
69.924950;0.584000
70.508949;0.584000
71.092949;0.581000
71.673950;0.579000
72.252953;0.581000
72.833946;0.579000
73.412949;0.573000
73.985947;0.574000
74.559952;0.578000
75.137947;0.586000
75.723946;0.586000
76.309952;0.595000
76.904945;0.605000
77.509949;0.617000
78.126945;0.621000
78.747948;0.616000
79.363953;0.606000
79.969948;0.612000
80.581947;0.605000
81.186951;0.587000
81.773949;0.577000
82.350952;0.568000
82.918953;0.559000
83.477951;0.552000
84.029953;0.549000
84.578949;0.553000
85.131950;0.561000
85.692947;0.564000
86.256950;0.564000
86.820946;0.570000
87.390945;0.567000
87.957947;0.574000
88.531952;0.579000
89.110947;0.571000
89.681946;0.578000
90.259949;0.576000
90.835953;0.583000
91.418945;0.587000
92.005951;0.587000
92.592949;0.582000
93.174950;0.582000
93.756950;0.579000
94.335953;0.582000
94.917946;0.575000
95.492950;0.576000
96.068947;0.581000
96.649948;0.599000
97.248947;0.602000
97.850952;0.603000
98.453949;0.608000
99.061951;0.623000
99.684952;0.624000
100.308952;0.613000
100.921951;0.616000
101.537949;0.610000
102.147949;0.615000
102.762947;0.616000
103.378952;0.613000
103.991951;0.625000
104.616951;0.635000
105.251945;0.643000
105.894951;0.629000
106.523949;0.618000
107.141953;0.610000
107.751945;0.608000
108.359947;0.613000
108.972946;0.612000
109.584946;0.618000
110.202950;0.627000
110.829948;0.623000
111.452950;0.609000
112.061951;0.608000
112.669952;0.610000
113.279945;0.615000
113.894951;0.619000
114.513947;0.616000
115.129951;0.619000
115.748947;0.620000
116.368950;0.622000
116.990952;0.615000
117.605949;0.607000
118.212952;0.605000
118.817947;0.604000
119.421951;0.601000
120.022949;0.595000
120.617950;0.595000
121.212952;0.608000
121.820946;0.619000
122.439949;0.632000
123.071953;0.619000
123.690948;0.611000
124.301949;0.605000
124.906952;0.605000
125.511948;0.600000
126.111946;0.597000
126.708946;0.603000
127.311951;0.607000
127.918953;0.607000
128.525955;0.600000
129.125946;0.596000
129.721954;0.599000
130.320953;0.604000
130.924942;0.603000
131.527954;0.598000
132.125946;0.598000
132.723953;0.599000
133.322952;0.591000
133.913956;0.586000
134.499954;0.583000
135.082947;0.583000
135.665955;0.581000
136.246948;0.585000
136.831955;0.585000
137.416946;0.583000
137.999954;0.598000
138.597946;0.602000
139.199951;0.602000
139.801956;0.608000
140.409943;0.603000
141.012955;0.600000
141.612946;0.587000
142.199951;0.585000
142.784943;0.582000
143.366943;0.574000
143.940948;0.569000
144.509949;0.564000
145.073944;0.570000
145.643951;0.574000
146.217957;0.574000
146.791946;0.580000
147.371948;0.594000
147.965942;0.609000
148.574951;0.607000
149.181946;0.599000
149.780945;0.596000
150.376953;0.595000
150.971954;0.590000
151.561951;0.579000
152.140945;0.568000
152.708954;0.560000
153.268951;0.566000
153.834946;0.567000
154.401947;0.558000
154.959946;0.552000
155.511948;0.548000
156.059952;0.549000
156.608948;0.547000
157.155945;0.555000
157.710953;0.573000
158.283951;0.599000
158.882950;0.608000
159.490952;0.609000
160.099945;0.612000
160.711945;0.615000
161.326950;0.606000
161.932953;0.603000
162.535950;0.595000
163.130951;0.587000
163.717957;0.586000
164.303955;0.590000
164.893951;0.595000
165.488953;0.599000
166.087952;0.596000
166.683945;0.595000
167.278946;0.590000
167.868942;0.591000
168.459946;0.578000
169.037949;0.580000
169.617950;0.584000
170.201950;0.591000
170.792953;0.609000
171.401947;0.616000
172.017944;0.610000
172.627945;0.603000
173.230942;0.603000
173.833954;0.602000
174.435944;0.592000
175.027954;0.586000
175.613953;0.585000
176.198944;0.586000
176.784943;0.592000
177.376953;0.594000
177.970947;0.605000
178.575943;0.623000
179.198944;0.629000
179.827942;0.620000
180.447952;0.611000
181.058945;0.603000
181.661957;0.593000
182.254944;0.598000
182.852951;0.596000
183.448944;0.606000
184.054947;0.608000
184.662949;0.608000
185.270950;0.607000
185.877945;0.598000
186.475952;0.598000
187.073944;0.597000
187.670944;0.592000
188.262955;0.588000
188.850952;0.583000
189.433945;0.579000
190.012955;0.573000
190.585953;0.576000
191.161957;0.580000
191.741943;0.585000
192.326950;0.592000
192.918945;0.600000
193.518951;0.605000
194.123947;0.602000
194.725952;0.597000
195.322952;0.589000
195.911957;0.592000
196.503952;0.591000
197.094955;0.585000
197.679947;0.587000
198.266953;0.587000
198.853943;0.589000
199.442947;0.594000
200.036957;0.599000
200.635956;0.598000
201.233948;0.598000
201.831955;0.600000
202.431946;0.600000
203.031952;0.600000
203.631943;0.589000
204.220947;0.589000
204.809952;0.588000
205.397949;0.590000
205.987946;0.592000
206.579956;0.588000
207.167953;0.589000
207.756943;0.588000
208.344955;0.585000
208.929947;0.583000
209.512955;0.583000
210.095947;0.580000
210.675949;0.580000
211.255951;0.585000
211.840942;0.586000
212.426956;0.590000
213.016953;0.588000
213.604950;0.585000
214.189941;0.582000
214.771942;0.580000
215.351944;0.580000
215.931946;0.579000
216.510956;0.579000
217.089951;0.585000
217.674942;0.586000
218.260956;0.587000
218.847946;0.597000
219.444946;0.613000
220.057953;0.624000
220.681946;0.628000
221.309952;0.613000
221.922943;0.605000
222.527954;0.598000
223.125946;0.594000
223.719955;0.590000
224.309952;0.587000
224.896942;0.591000
225.487946;0.593000
226.080948;0.593000
226.673950;0.598000
227.271942;0.599000
227.870956;0.606000
228.476944;0.606000
229.082947;0.599000
229.681946;0.599000
230.280945;0.598000
230.878952;0.598000
231.476944;0.592000
232.068954;0.592000
232.660950;0.590000
233.250946;0.593000
233.843948;0.595000
234.438950;0.593000
235.031952;0.591000
235.622955;0.588000
236.210953;0.588000
236.798950;0.583000
237.381943;0.584000
237.965942;0.586000
238.551956;0.593000
239.144943;0.602000
239.746948;0.608000
240.354950;0.610000
240.964951;0.612000
241.576950;0.605000
242.181946;0.607000
242.788956;0.606000
243.394943;0.612000
244.006943;0.611000
244.617950;0.611000
245.228943;0.617000
245.845947;0.607000
246.452942;0.605000
247.057953;0.603000
247.660950;0.600000
248.260956;0.596000
248.856949;0.595000
249.451950;0.595000
250.046951;0.600000
250.646942;0.593000
251.239944;0.590000
251.829956;0.591000
252.420944;0.594000
253.014954;0.603000
253.617950;0.601000
254.218948;0.597000
254.815948;0.592000
255.407944;0.587000
255.994949;0.580000
256.574951;0.578000
257.152954;0.576000
257.728943;0.579000
258.307953;0.585000
258.892944;0.594000
259.486938;0.594000
260.080963;0.601000
260.681946;0.609000
261.290955;0.614000
261.904938;0.615000
262.519958;0.608000
263.127960;0.595000
263.722961;0.585000
264.307953;0.577000
264.884949;0.573000
265.457947;0.569000
266.026947;0.568000
266.594940;0.575000
267.169952;0.578000
267.747955;0.583000
268.330963;0.588000
268.918945;0.602000
269.520935;0.605000
270.125946;0.597000
270.722961;0.598000
271.320953;0.595000
271.915955;0.593000
272.508942;0.594000
273.102936;0.593000
273.695953;0.588000
274.283936;0.591000
274.874939;0.600000
275.474945;0.596000
276.070953;0.579000
276.649963;0.572000
277.221954;0.565000
277.786957;0.562000
278.348938;0.563000
278.911957;0.564000
279.475952;0.573000
280.048950;0.582000
280.630951;0.596000
281.226959;0.601000
281.827942;0.605000
282.432953;0.607000
283.039948;0.610000
283.649963;0.611000
284.260956;0.612000
284.872955;0.598000
285.470947;0.589000
286.059937;0.588000
286.647949;0.585000
287.232941;0.586000
287.818939;0.586000
288.404938;0.591000
288.995941;0.589000
289.584961;0.589000
290.173950;0.590000
290.763947;0.594000
291.357941;0.591000
291.948944;0.589000
292.537964;0.591000
293.128937;0.595000
293.723938;0.597000
294.320953;0.599000
294.919952;0.603000
295.522949;0.600000
296.122955;0.592000
296.714935;0.587000
297.301941;0.583000
297.884949;0.585000
298.469940;0.586000
299.055939;0.593000
299.648956;0.590000
300.238953;0.590000
300.828949;0.586000
301.414948;0.595000
302.009949;0.588000
302.597961;0.584000
303.181946;0.581000
303.762939;0.583000
304.345947;0.587000
304.932953;0.587000
305.519958;0.590000
306.109955;0.599000
306.708954;0.605000
307.313934;0.610000
307.923950;0.607000
308.530945;0.598000
309.128937;0.595000
309.723938;0.600000
310.323944;0.594000
310.917938;0.592000
311.509949;0.594000
312.103943;0.594000
312.697937;0.596000
313.293945;0.586000
313.879944;0.579000
314.458954;0.569000
315.027954;0.564000
315.591949;0.564000
316.155945;0.580000
316.735962;0.568000
317.303955;0.574000
317.877960;0.570000
318.447937;0.570000
319.017944;0.564000
319.581940;0.562000
320.143951;0.567000
320.710938;0.570000
321.280945;0.561000
321.841949;0.560000
322.401947;0.561000
322.962952;0.552000
323.514954;0.545000
324.059937;0.542000
324.601959;0.539000
325.140961;0.536000
325.676941;0.533000
326.209961;0.533000
326.742950;0.532000
327.274963;0.526000
327.800964;0.529000
328.329956;0.529000
328.858948;0.533000
329.391937;0.531000
329.922943;0.538000
330.460938;0.547000
331.007935;0.563000
331.570953;0.571000
332.141937;0.590000
332.731964;0.590000
333.321960;0.586000
333.907959;0.588000
334.495941;0.615000
335.110962;0.625000
335.735962;0.633000
336.368958;0.602000
336.970947;0.593000
337.563934;0.579000
338.142944;0.581000
338.723938;0.583000
339.306946;0.573000
339.879944;0.569000
340.448944;0.572000
341.020935;0.568000
341.588959;0.570000
342.158936;0.562000
342.720947;0.553000
343.273956;0.555000
343.828949;0.552000
344.380951;0.557000
344.937958;0.553000
345.490936;0.547000
346.037964;0.543000
346.580963;0.537000
347.117950;0.534000
347.651947;0.532000
348.183960;0.536000
348.719940;0.538000
349.257935;0.546000
349.803955;0.541000
350.344940;0.555000
350.899963;0.560000
351.459961;0.561000
352.020935;0.553000
352.573944;0.556000
353.129944;0.555000
353.684937;0.559000
354.243958;0.551000
354.794952;0.547000
355.341949;0.550000
355.891937;0.548000
356.439941;0.560000
356.999939;0.557000
357.556946;0.555000
358.111938;0.552000
358.663940;0.550000
359.213959;0.541000
359.754944;0.543000
360.297943;0.542000
360.839935;0.535000
361.374939;0.527000
361.901947;0.530000
362.431946;0.521000
362.952942;0.528000
363.480957;0.530000
364.010956;0.526000
364.536957;0.524000
365.060944;0.527000
365.587952;0.527000
366.114960;0.526000
366.640961;0.521000
367.161957;0.520000
367.681946;0.518000
368.199951;0.511000
368.710938;0.514000
369.224945;0.507000
369.731964;0.507000
370.238953;0.505000
370.743958;0.508000
371.251953;0.507000
371.758942;0.512000
372.270935;0.511000
372.781952;0.516000
373.297943;0.518000
373.815948;0.529000
374.344940;0.527000
374.871948;0.531000
375.402954;0.527000
375.929962;0.518000
376.447937;0.520000
376.967957;0.517000
377.484955;0.509000
377.993958;0.510000
378.503937;0.509000
379.012939;0.517000
379.529938;0.521000
380.050964;0.523000
380.573944;0.522000
381.095947;0.527000
381.622955;0.525000
382.147949;0.527000
382.674957;0.532000
383.206940;0.532000
383.738953;0.528000
384.266937;0.529000
384.795959;0.527000
385.322937;0.527000
385.849945;0.521000
386.370941;0.524000
386.894958;0.524000
387.418945;0.524000
387.942963;0.522000
388.464935;0.517000
388.981964;0.518000
389.499939;0.518000
390.017944;0.509000
390.526947;0.507000
391.033936;0.506000
391.539948;0.500000
392.039948;0.497000
392.536957;0.499000
393.035950;0.498000
393.533936;0.493000
394.026947;0.491000
394.517944;0.491000
395.008942;0.490000
395.498962;0.486000
395.984955;0.483000
396.467957;0.487000
396.954956;0.487000
397.441956;0.489000
397.930939;0.485000
398.415955;0.492000
398.907959;0.494000
399.401947;0.489000
399.890961;0.490000
400.380951;0.492000
400.872955;0.491000
401.363953;0.488000
401.851959;0.487000
402.338959;0.489000
402.827942;0.491000
403.318939;0.486000
403.804962;0.488000
404.292938;0.485000
404.777954;0.488000
405.265961;0.487000
405.752960;0.485000
406.237946;0.484000
406.721954;0.487000
407.208954;0.486000
407.694946;0.479000
408.173950;0.480000
408.653961;0.478000
409.131958;0.478000
409.609955;0.474000
410.083954;0.470000
410.553955;0.473000
411.026947;0.471000
411.497955;0.471000
411.968964;0.466000
412.434937;0.468000
412.902954;0.481000
413.383942;0.487000
413.870941;0.491000
414.361938;0.493000
414.854950;0.491000
415.345947;0.490000
415.835938;0.486000
416.321960;0.485000
416.806946;0.485000
417.291962;0.476000
417.767944;0.471000
418.238953;0.471000
418.709961;0.469000
419.178955;0.463000
419.641937;0.464000
420.105957;0.467000
420.572937;0.466000
421.038940;0.461000
421.499939;0.465000
421.964935;0.468000
422.432953;0.468000
422.900940;0.466000
423.366943;0.462000
423.828949;0.467000
424.295959;0.466000
424.761963;0.471000
425.232941;0.465000
425.697937;0.462000
426.159943;0.466000
426.625946;0.469000
427.094940;0.464000
427.558960;0.460000
428.018951;0.466000
428.484955;0.465000
428.949951;0.464000
429.413940;0.460000
429.873962;0.457000
430.330963;0.459000
430.789948;0.458000
431.247955;0.452000
431.699951;0.454000
432.153961;0.451000
432.604950;0.448000
433.052948;0.452000
433.504944;0.448000
433.952942;0.450000
434.402954;0.452000
434.854950;0.445000
435.299957;0.448000
435.747955;0.449000
436.196960;0.445000
436.641937;0.445000
437.086945;0.446000
437.532959;0.448000
437.980957;0.446000
438.426941;0.449000
438.875946;0.452000
439.327942;0.446000
439.773956;0.453000
440.226959;0.456000
440.682953;0.458000
441.140961;0.457000
441.597961;0.458000
442.055939;0.454000
442.509949;0.458000
442.967957;0.457000
443.424957;0.454000
443.878937;0.458000
444.336945;0.458000
444.794952;0.453000
445.247955;0.454000
445.701935;0.457000
446.158936;0.453000
446.611938;0.453000
447.064941;0.453000
447.517944;0.454000
447.971954;0.449000
448.420959;0.450000
448.870941;0.453000
449.323944;0.453000
449.776947;0.450000
450.226959;0.448000
450.674957;0.452000
451.126953;0.450000
451.576935;0.452000
452.028961;0.451000
452.479950;0.453000
452.932953;0.458000
453.390961;0.453000
453.843964;0.456000
454.299957;0.460000
454.759949;0.456000
455.215942;0.458000
455.673950;0.461000
456.134949;0.463000
456.597961;0.458000
457.055939;0.464000
457.519958;0.465000
457.984955;0.464000
458.448944;0.463000
458.911957;0.460000
459.371948;0.460000
459.831940;0.461000
460.292938;0.468000
460.760956;0.461000
461.221954;0.464000
461.685944;0.465000
462.150940;0.466000
462.616943;0.466000
463.082947;0.465000
463.547943;0.463000
464.010956;0.460000
464.470947;0.461000
464.931946;0.456000
465.387939;0.454000
465.841949;0.455000
466.296936;0.455000
466.751953;0.450000
467.201935;0.459000
467.660950;0.465000
468.125946;0.461000
468.586945;0.465000
469.051941;0.467000
469.518951;0.465000
469.983948;0.469000
470.452942;0.473000
470.925964;0.474000
471.399963;0.466000
471.865936;0.465000
472.330963;0.470000
472.800964;0.471000
473.271942;0.463000
473.734955;0.463000
474.197937;0.465000
474.662964;0.467000
475.129944;0.462000
475.591949;0.462000
476.053955;0.466000
476.519958;0.467000
476.986938;0.468000
477.454956;0.473000
477.927948;0.475000
478.402954;0.474000
478.876953;0.474000
479.350952;0.465000
479.815948;0.463000
480.278961;0.468000
480.746948;0.469000
481.215942;0.460000
481.675964;0.463000
482.138947;0.464000
482.602936;0.466000
483.068939;0.469000
483.537964;0.466000
484.003937;0.461000
484.464935;0.463000
484.927948;0.468000
485.395935;0.465000
485.860962;0.461000
486.321960;0.478000
486.799957;0.489000
487.288940;0.494000
487.782959;0.501000
488.283936;0.494000
488.777954;0.490000
489.267944;0.489000
489.756958;0.485000
490.241943;0.474000
490.715942;0.469000
491.184937;0.471000
491.655945;0.473000
492.128937;0.469000
492.597961;0.467000
493.064941;0.459000
493.523956;0.458000
493.981964;0.461000
494.442963;0.458000
494.900940;0.461000
495.361938;0.458000
495.819946;0.449000
496.268951;0.447000
496.715942;0.448000
497.163940;0.451000
497.614960;0.453000
498.067963;0.451000
498.518951;0.452000
498.970947;0.452000
499.422943;0.454000
499.876953;0.454000
500.330963;0.454000
500.784943;0.447000
501.231964;0.447000
501.678955;0.442000
502.120941;0.444000
502.564941;0.443000
503.007935;0.445000
503.452942;0.443000
503.895935;0.443000
504.338959;0.438000
504.776947;0.443000
505.219940;0.446000
505.665955;0.442000
506.107941;0.442000
506.549957;0.444000
506.993958;0.445000
507.438934;0.447000
507.885956;0.443000
508.328949;0.445000
508.773956;0.443000
509.216949;0.433000
509.649963;0.436000
510.085938;0.438000
510.523956;0.435000
510.958954;0.429000
511.387939;0.430000
511.817963;0.429000
512.246948;0.432000
512.678955;0.428000
513.106934;0.430000
513.536926;0.424000
513.960938;0.417000
514.377930;0.428000
514.805969;0.428000
515.233948;0.421000
515.654968;0.423000
516.077942;0.429000
516.506958;0.428000
516.934937;0.425000
517.359924;0.424000
517.783936;0.427000
518.210938;0.428000
518.638977;0.423000
519.061951;0.425000
519.486938;0.420000
519.906921;0.422000
520.328979;0.425000
520.753967;0.427000
521.180969;0.431000
521.611938;0.432000
522.043945;0.435000
522.478943;0.437000
522.915955;0.440000
523.355957;0.437000
523.792969;0.437000
524.229919;0.437000
524.666931;0.426000
525.092957;0.420000
525.512939;0.426000
525.938965;0.435000
526.373962;0.433000
526.806946;0.439000
527.245972;0.433000
527.678955;0.435000
528.113953;0.435000
528.548950;0.431000
528.979919;0.427000
529.406921;0.423000
529.829956;0.424000
530.253967;0.423000
530.676941;0.425000
531.101929;0.421000
531.522949;0.421000
531.943970;0.422000
532.365967;0.416000
532.781921;0.412000
533.193970;0.416000
533.609924;0.418000
534.027954;0.413000
534.440979;0.415000
534.855957;0.417000
535.272949;0.416000
535.688965;0.413000
536.101929;0.415000
536.516968;0.416000
536.932922;0.416000
537.348938;0.416000
537.764954;0.409000
538.173950;0.405000
538.578979;0.415000
538.993958;0.416000
539.409973;0.410000
539.819946;0.414000
540.233948;0.415000
540.648926;0.414000
541.062927;0.413000
541.475952;0.416000
541.891968;0.418000
542.309937;0.418000
542.727966;0.420000
543.147949;0.424000
543.571960;0.422000
543.993958;0.420000
544.413940;0.426000
544.839966;0.430000
545.269958;0.426000
545.695923;0.423000
546.118958;0.424000
546.542969;0.436000
546.978943;0.432000
547.410950;0.427000
547.837952;0.425000
548.262939;0.430000
548.692932;0.426000
549.118958;0.424000
549.542969;0.426000
549.968933;0.431000
550.399963;0.432000
550.831970;0.426000
551.257935;0.429000
551.686951;0.428000
552.114929;0.433000
552.547974;0.432000
552.979919;0.430000
553.409973;0.434000
553.843933;0.429000
554.272949;0.426000
554.698975;0.429000
555.127930;0.432000
555.559937;0.431000
555.990967;0.430000
556.420959;0.432000
556.852966;0.433000
557.285950;0.432000
557.717957;0.429000
558.146973;0.430000
558.576965;0.433000
559.009949;0.433000
559.442932;0.435000
559.877930;0.432000
560.309937;0.430000
560.739929;0.433000
561.172974;0.443000
561.615967;0.436000
562.051941;0.430000
562.481934;0.436000
562.917969;0.441000
563.358948;0.444000
563.802979;0.446000
564.248962;0.448000
564.696960;0.452000
565.148926;0.449000
565.597961;0.448000
566.045959;0.444000
566.489929;0.441000
566.930969;0.444000
567.374939;0.442000
567.816956;0.441000
568.257935;0.441000
568.698975;0.439000
569.137939;0.435000
569.572937;0.432000
570.004944;0.436000
570.440979;0.438000
570.878967;0.438000
571.316956;0.441000
571.757935;0.445000
572.202942;0.442000
572.644958;0.438000
573.082947;0.443000
573.525940;0.449000
573.974976;0.450000
574.424927;0.454000
574.878967;0.458000
575.336975;0.459000
575.795959;0.451000
576.246948;0.450000
576.696960;0.452000
577.148926;0.450000
577.598938;0.448000
578.046936;0.448000
578.494934;0.443000
578.937927;0.438000
579.375977;0.445000
579.820923;0.446000
580.266968;0.446000
580.712952;0.444000
581.156921;0.447000
581.603943;0.450000
582.053955;0.449000
582.502930;0.452000
582.954956;0.462000
583.416931;0.458000
583.874939;0.460000
584.334961;0.463000
584.797974;0.468000
585.265930;0.466000
585.731934;0.456000
586.187927;0.459000
586.646973;0.459000
587.105957;0.457000
587.562927;0.446000
588.008972;0.443000
588.451965;0.450000
588.901978;0.447000
589.348938;0.444000
589.792969;0.449000
590.241943;0.450000
590.691956;0.446000
591.137939;0.451000
591.588928;0.450000
592.038940;0.454000
592.492920;0.454000
592.946960;0.454000
593.400940;0.446000
593.846924;0.443000
594.289978;0.448000
594.737976;0.448000
595.185974;0.437000
595.622925;0.437000
596.059937;0.442000
596.501953;0.438000
596.939941;0.435000
597.374939;0.435000
597.809937;0.439000
598.248962;0.439000
598.687927;0.435000
599.122925;0.435000
599.557922;0.442000
599.999939;0.442000
600.441956;0.439000
600.880920;0.442000
601.322937;0.443000
601.765930;0.442000
602.207947;0.436000
602.643921;0.440000
603.083923;0.442000
603.525940;0.435000
603.960938;0.428000
604.388977;0.431000
604.819946;0.430000
605.249939;0.429000
605.678955;0.423000
606.101929;0.428000
606.529968;0.432000
606.961975;0.430000
607.391968;0.427000
607.818970;0.434000
608.252930;0.435000
608.687927;0.433000
609.120972;0.428000
609.548950;0.433000
609.981934;0.435000
610.416931;0.434000
610.850952;0.429000
611.279968;0.427000
611.706970;0.431000
612.137939;0.430000
612.567932;0.425000
612.992920;0.425000
613.417969;0.427000
613.844971;0.423000
614.267944;0.422000
614.689941;0.424000
615.113953;0.420000
615.533936;0.424000
615.957947;0.424000
616.381958;0.421000
616.802979;0.420000
617.222961;0.423000
617.645935;0.421000
618.066956;0.423000
618.489929;0.422000
618.911926;0.419000
619.330933;0.419000
619.749939;0.420000
620.169922;0.418000
620.587952;0.424000
621.011963;0.421000
621.432922;0.416000
621.848938;0.419000
622.267944;0.420000
622.687927;0.422000
623.109924;0.417000
623.526978;0.413000
623.939941;0.419000
624.358948;0.421000
624.779968;0.416000
625.195923;0.416000
625.611938;0.420000
626.031921;0.422000
626.453979;0.424000
626.877930;0.418000
627.295959;0.425000
627.720947;0.430000
628.150940;0.429000
628.579956;0.425000
629.004944;0.427000
629.431946;0.431000
629.862976;0.430000
630.292969;0.426000
630.718933;0.426000
631.144958;0.427000
631.571960;0.430000
632.001953;0.425000
632.426941;0.427000
632.853943;0.428000
633.281921;0.424000
633.705933;0.423000
634.128967;0.427000
634.555969;0.428000
634.983948;0.427000
635.410950;0.424000
635.834961;0.431000
636.265930;0.433000
636.698975;0.432000
637.130920;0.430000
637.560974;0.433000
637.993958;0.434000
638.427979;0.437000
638.864929;0.438000
639.302979;0.441000
639.743958;0.442000
640.185974;0.444000
640.629944;0.445000
641.074951;0.450000
641.524963;0.445000
641.969971;0.438000
642.407959;0.444000
642.851929;0.445000
643.296936;0.439000
643.735962;0.439000
644.174927;0.441000
644.615967;0.442000
645.057922;0.444000
645.501953;0.443000
645.944946;0.443000
646.387939;0.435000
646.822937;0.439000
647.261963;0.445000
647.706970;0.439000
648.145935;0.436000
648.581970;0.436000
649.017944;0.440000
649.457947;0.442000
649.899963;0.440000
650.339966;0.442000
650.781921;0.440000
651.221924;0.438000
651.659973;0.442000
652.101929;0.442000
652.543945;0.442000
652.985962;0.444000
653.429932;0.446000
653.875977;0.451000
654.326965;0.452000
654.778931;0.449000
655.227966;0.447000
655.674927;0.451000
656.125977;0.452000
656.577942;0.443000
657.020935;0.446000
657.466919;0.448000
657.914978;0.442000
658.356934;0.442000
658.798950;0.444000
659.242920;0.443000
659.685974;0.435000
660.120972;0.440000
660.560974;0.443000
661.003967;0.436000
661.439941;0.438000
661.877930;0.443000
662.320923;0.414000
662.734924;0.443000
663.177979;0.442000
663.619934;0.439000
664.058960;0.448000
664.506958;0.445000
664.951965;0.449000
665.400940;0.452000
665.852966;0.453000
666.305969;0.452000
666.757935;0.455000
667.212952;0.455000
667.667969;0.452000
668.119934;0.451000
668.570923;0.453000
669.023926;0.448000
669.471924;0.449000
669.920959;0.449000
670.369934;0.453000
670.822937;0.450000
671.272949;0.447000
671.719971;0.449000
672.168945;0.450000
672.618958;0.450000
673.068970;0.446000
673.514954;0.451000
673.965942;0.454000
674.419922;0.453000
674.872925;0.454000
675.326965;0.458000
675.784973;0.460000
676.244934;0.461000
676.705933;0.460000
677.165955;0.462000
677.627930;0.463000
678.090942;0.463000
678.553955;0.464000
679.017944;0.465000
679.482971;0.468000
679.950928;0.469000
680.419922;0.466000
680.885925;0.468000
681.353943;0.468000
681.821960;0.467000
682.288940;0.463000
682.751953;0.465000
683.216919;0.464000
683.680969;0.464000
684.144958;0.461000
684.605957;0.465000
685.070923;0.465000
685.535950;0.466000
686.001953;0.466000
686.467957;0.469000
686.936951;0.469000
687.405945;0.468000
687.873962;0.468000
688.341919;0.469000
688.810974;0.471000
689.281921;0.471000
689.752930;0.470000
690.222961;0.470000
690.692932;0.468000
691.160950;0.469000
691.629944;0.468000
692.097961;0.466000
692.563965;0.462000
693.025940;0.460000
693.485962;0.467000
693.952942;0.468000
694.420959;0.468000
694.888977;0.469000
695.357971;0.471000
695.828979;0.474000
696.302979;0.478000
696.780945;0.479000
697.259949;0.476000
697.735962;0.477000
698.212952;0.483000
698.695923;0.482000
699.177979;0.481000
699.658936;0.482000
700.140930;0.486000
700.626953;0.486000
701.112976;0.487000
701.599976;0.490000
702.089966;0.496000
702.585938;0.498000
703.083923;0.497000
703.580933;0.497000
704.077942;0.499000
704.576965;0.500000
705.076965;0.498000
705.574951;0.496000
706.070923;0.497000
706.567932;0.492000
707.059937;0.490000
707.549927;0.490000
708.039978;0.492000
708.531921;0.493000
709.024963;0.489000
709.513977;0.490000
710.003967;0.492000
710.495972;0.498000
710.993958;0.498000
711.491943;0.500000
711.991943;0.505000
712.496948;0.511000
713.007935;0.507000
713.514954;0.504000
714.018921;0.504000
714.522949;0.498000
715.020935;0.494000
715.514954;0.492000
716.006958;0.493000
716.499939;0.493000
716.992920;0.493000
717.485962;0.494000
717.979919;0.495000
718.474976;0.501000
718.975952;0.505000
719.480957;0.503000
719.983948;0.501000
720.484924;0.503000
720.987976;0.509000
721.496948;0.504000
722.000977;0.507000
722.507935;0.508000
723.015930;0.510000
723.525940;0.511000
724.036926;0.508000
724.544922;0.508000
725.052979;0.512000
725.564941;0.516000
726.080933;0.514000
726.594971;0.509000
727.103943;0.510000
727.613953;0.515000
728.128967;0.517000
728.645935;0.511000
729.156921;0.511000
729.667969;0.512000
730.179932;0.510000
730.689941;0.511000
731.200928;0.513000
731.713928;0.517000
732.230957;0.522000
732.752930;0.533000
733.285950;0.539000
733.824951;0.536000
734.360962;0.532000
734.892944;0.522000
735.414978;0.517000
735.931946;0.515000
736.446960;0.514000
736.960938;0.515000
737.475952;0.515000
737.990967;0.515000
738.505920;0.519000
739.024963;0.529000
739.553955;0.531000
740.084961;0.528000
740.612976;0.520000
741.132935;0.521000
741.653931;0.525000
742.178955;0.532000
742.710938;0.531000
743.241943;0.526000
743.767944;0.527000
744.294922;0.532000
744.826965;0.531000
745.357971;0.527000
745.884949;0.521000
746.405945;0.529000
746.934937;0.532000
747.466919;0.529000
747.995972;0.524000
748.519958;0.530000
749.049927;0.535000
749.584961;0.541000
750.125977;0.538000
750.663940;0.542000
751.205933;0.541000
751.746948;0.536000
752.282959;0.531000
752.813965;0.532000
753.345947;0.531000
753.876953;0.530000
754.406921;0.527000
754.933960;0.527000
755.460938;0.533000
755.993958;0.537000
756.530945;0.534000
757.064941;0.533000
757.597961;0.543000
758.140930;0.555000
758.695923;0.547000
759.242920;0.543000
759.785950;0.540000
760.325928;0.541000
760.866943;0.539000
761.405945;0.535000
761.940979;0.530000
762.470947;0.530000
763.000977;0.536000
763.536926;0.538000
764.074951;0.532000
764.606934;0.530000
765.136963;0.535000
765.671936;0.531000
766.202942;0.529000
766.731934;0.529000
767.260925;0.536000
767.796936;0.541000
768.337952;0.536000
768.873962;0.533000
769.406921;0.529000
769.935974;0.532000
770.467957;0.535000
771.002930;0.533000
771.535950;0.529000
772.064941;0.526000
772.590942;0.533000
773.123962;0.540000
773.663940;0.535000
774.198975;0.532000
774.730957;0.535000
775.265930;0.536000
775.801941;0.534000
776.335938;0.528000
776.863953;0.528000
777.391968;0.529000
777.920959;0.534000
778.454956;0.531000
778.985962;0.531000
779.516968;0.531000
780.047974;0.535000
780.582947;0.533000
781.115967;0.531000
781.646973;0.536000
782.182922;0.544000
782.726929;0.545000
783.271973;0.541000
783.812927;0.540000
784.352966;0.537000
784.889954;0.529000
785.418945;0.528000
785.946960;0.527000
786.473938;0.538000
787.011963;0.561000
787.572937;0.559000
788.131958;0.560000
788.691956;0.557000
789.248962;0.566000
789.814941;0.559000
790.373962;0.554000
790.927979;0.550000
791.477966;0.556000
792.033936;0.555000
792.588928;0.555000
793.143921;0.550000
793.693970;0.551000
794.244934;0.553000
794.797974;0.550000
795.347961;0.549000
795.896973;0.550000
796.446960;0.557000
797.003967;0.558000
797.561951;0.548000
798.109924;0.546000
798.655945;0.549000
799.204956;0.546000
799.750977;0.545000
800.295959;0.551000
800.846924;0.550000
801.396973;0.548000
801.944946;0.547000
802.491943;0.548000
803.039978;0.554000
803.593933;0.548000
804.141968;0.550000
804.691956;0.546000
805.237976;0.540000
805.777954;0.538000
806.315979;0.536000
806.851929;0.539000
807.390930;0.542000
807.932922;0.543000
808.475952;0.541000
809.016968;0.545000
809.561951;0.545000
810.106934;0.542000
810.648926;0.541000
811.189941;0.540000
811.729919;0.544000
812.273926;0.544000
812.817932;0.543000
813.360962;0.543000
813.903931;0.554000
814.457947;0.563000
815.020935;0.564000
815.584961;0.563000
816.147949;0.562000
816.709961;0.569000
817.278931;0.564000
817.842957;0.560000
818.402954;0.560000
818.962952;0.569000
819.531921;0.567000
820.098938;0.568000
820.666931;0.563000
821.229919;0.569000
821.798950;0.569000
822.367920;0.571000
822.938965;0.569000
823.507935;0.567000
824.074951;0.575000
824.649963;0.565000
825.214966;0.564000
825.778931;0.560000
826.338928;0.566000
826.904968;0.567000
827.471924;0.564000
828.035950;0.563000
828.598938;0.567000
829.165955;0.566000
829.731934;0.556000
830.287964;0.555000
830.842957;0.555000
831.397949;0.557000
831.954956;0.554000
832.508972;0.553000
833.061951;0.553000
833.614929;0.563000
834.177979;0.567000
834.744934;0.562000
835.306946;0.559000
835.865967;0.558000
836.423950;0.553000
836.976929;0.550000
837.526978;0.549000
838.075928;0.548000
838.623962;0.548000
839.171936;0.548000
839.719971;0.548000
840.267944;0.554000
840.821960;0.557000
841.378967;0.553000
841.931946;0.553000
842.484924;0.551000
843.035950;0.560000
843.595947;0.569000
844.164978;0.575000
844.739929;0.570000
845.309937;0.574000
845.883972;0.579000
846.462952;0.580000
847.042969;0.575000
847.617920;0.571000
848.188965;0.576000
848.764954;0.574000
849.338928;0.571000
849.909973;0.565000
850.474976;0.567000
851.041931;0.569000
851.610962;0.564000
852.174927;0.567000
852.741943;0.583000
853.324951;0.597000
853.921936;0.612000
854.533936;0.600000
855.133972;0.589000
855.722961;0.580000
856.302979;0.576000
856.878967;0.568000
857.446960;0.566000
858.012939;0.569000
858.581970;0.575000
859.156921;0.575000
859.731934;0.571000
860.302979;0.570000
860.872925;0.579000
861.451965;0.588000
862.039978;0.585000
862.624939;0.580000
863.204956;0.578000
863.782959;0.578000
864.360962;0.573000
864.933960;0.570000
865.503967;0.573000
866.076965;0.583000
866.659973;0.588000
867.247925;0.575000
867.822937;0.564000
868.386963;0.565000
868.951965;0.568000
869.519958;0.567000
870.086975;0.564000
870.650940;0.562000
871.212952;0.560000
871.772949;0.565000
872.337952;0.562000
872.899963;0.563000
873.462952;0.562000
874.024963;0.566000
874.590942;0.566000
875.156921;0.561000
875.717957;0.560000
876.277954;0.561000
876.838928;0.563000
877.401978;0.560000
877.961975;0.558000
878.519958;0.566000
879.085938;0.574000
879.659973;0.575000
880.234924;0.571000
880.805969;0.570000
881.375977;0.576000
881.951965;0.578000
882.529968;0.575000
883.104919;0.570000
883.674927;0.570000
884.244934;0.576000
884.820923;0.576000
885.396973;0.564000
885.960938;0.556000
886.516968;0.552000
887.068970;0.550000
887.618958;0.549000
888.167969;0.556000
888.723938;0.559000
889.282959;0.557000
889.839966;0.560000
890.399963;0.561000
890.960938;0.556000
891.516968;0.554000
892.070923;0.559000
892.629944;0.561000
893.190979;0.561000
893.751953;0.558000
894.309937;0.557000
894.866943;0.564000
895.430969;0.573000
896.003967;0.574000
896.577942;0.570000
897.147949;0.572000
897.719971;0.580000
898.299927;0.581000
898.880920;0.576000
899.456970;0.573000
900.029968;0.577000
900.606934;0.578000
901.184937;0.570000
901.754944;0.567000
902.321960;0.565000
902.886963;0.570000
903.456970;0.572000
904.028931;0.572000
904.600952;0.572000
905.172974;0.576000
905.748962;0.581000
906.329956;0.586000
906.915955;0.577000
907.492920;0.572000
908.064941;0.569000
908.633972;0.571000
909.204956;0.576000
909.780945;0.578000
910.358948;0.577000
910.935974;0.582000
911.517944;0.587000
912.104919;0.588000
912.692932;0.584000
913.276978;0.583000
913.859924;0.583000
914.442932;0.582000
915.024963;0.578000
915.602966;0.574000
916.176941;0.576000
916.752930;0.579000
917.331970;0.578000
917.909973;0.570000
918.479919;0.567000
919.046936;0.567000
919.613953;0.565000
920.178955;0.564000
920.742920;0.565000
921.307922;0.568000
921.875977;0.568000
922.443970;0.565000
923.008972;0.563000
923.571960;0.564000
924.135925;0.566000
924.701965;0.559000
925.260925;0.563000
925.823975;0.562000
926.385925;0.562000
926.947937;0.558000
927.505920;0.557000
928.062927;0.561000
928.623962;0.565000
929.188965;0.571000
929.759949;0.568000
930.327942;0.576000
930.903931;0.592000
931.495972;0.600000
932.095947;0.585000
932.680969;0.574000
933.254944;0.564000
933.818970;0.565000
934.383972;0.561000
934.944946;0.562000
935.506958;0.554000
936.060974;0.557000
936.617920;0.555000
937.172974;0.547000
937.719971;0.546000
938.265930;0.552000
938.817932;0.559000
939.376953;0.573000
939.949951;0.583000
940.532959;0.596000
941.128967;0.606000
941.734924;0.592000
942.326965;0.579000
942.905945;0.577000
943.482971;0.574000
944.056946;0.564000
944.620972;0.559000
945.179932;0.556000
945.735962;0.561000
946.296936;0.560000
946.856934;0.555000
947.411926;0.555000
947.966919;0.557000
948.523926;0.557000
949.080933;0.557000
949.637939;0.557000
950.194946;0.560000
950.754944;0.566000
951.320923;0.567000
951.887939;0.569000
952.456970;0.570000
953.026978;0.569000
953.595947;0.565000
954.160950;0.564000
954.724976;0.563000
955.287964;0.561000
955.848938;0.555000
956.403931;0.554000
956.957947;0.556000
957.513977;0.559000
958.072937;0.563000
958.635925;0.564000
959.199951;0.566000
959.765930;0.570000
960.335938;0.581000
960.916931;0.573000
961.489929;0.575000
962.064941;0.582000
962.646973;0.583000
963.229919;0.578000
963.807922;0.580000
964.387939;0.577000
964.964966;0.577000
965.541931;0.580000
966.121948;0.579000
966.700928;0.577000
967.277954;0.578000
967.855957;0.583000
968.438965;0.583000
969.021973;0.582000
969.603943;0.585000
970.188965;0.588000
970.776978;0.586000
971.362976;0.581000
971.943970;0.576000
972.519958;0.577000
973.096924;0.575000
973.671936;0.574000
974.245972;0.578000
974.823975;0.582000
975.405945;0.583000
975.988953;0.581000
976.569946;0.578000
977.147949;0.583000
977.730957;0.580000
978.310974;0.584000
978.894958;0.590000
979.484924;0.597000
980.081970;0.604000
980.685974;0.594000
981.279968;0.583000
981.862976;0.579000
982.441956;0.581000
983.022949;0.582000
983.604919;0.573000
984.177979;0.573000
984.750977;0.570000
985.320923;0.570000
985.890930;0.566000
986.456970;0.568000
987.024963;0.567000
987.591919;0.574000
988.165955;0.578000
988.743958;0.574000
989.317932;0.572000
989.889954;0.571000
990.460938;0.574000
991.034973;0.575000
991.609924;0.566000
992.175964;0.561000
992.736938;0.559000
993.295959;0.562000
993.857971;0.562000
994.419922;0.557000
994.976929;0.556000
995.532959;0.561000
996.093933;0.567000
996.660950;0.578000
997.238953;0.577000
997.815979;0.577000
998.392944;0.583000
998.975952;0.592000
999.567932;0.583000
1000.150940;0.577000
1000.727966;0.577000
1001.304932;0.576000
1001.880920;0.569000
1002.449951;0.565000
1003.014954;0.569000
1003.583923;0.570000
1004.153931;0.566000
1004.719971;0.563000
1005.282959;0.564000
1005.846924;0.569000
1006.415955;0.570000
1006.985962;0.569000
1007.554932;0.574000
1008.128967;0.584000
1008.712952;0.593000
1009.305969;0.588000
1009.893921;0.586000
1010.479919;0.583000
1011.062927;0.590000
1011.652954;0.588000
1012.240967;0.582000
1012.822937;0.575000
1013.397949;0.571000
1013.968933;0.569000
1014.537964;0.562000
1015.099976;0.561000
1015.660950;0.562000
1016.222961;0.564000
1016.786926;0.567000
1017.353943;0.562000
1017.915955;0.562000
1018.477966;0.563000
1019.040955;0.568000
1019.608948;0.574000
1020.182922;0.577000
1020.759949;0.578000
1021.337952;0.579000
1021.916931;0.583000
1022.499939;0.574000
1023.073975;0.572000
1023.645935;0.576000
1024.221924;0.574000
1024.795898;0.574000
1025.369995;0.574000
1025.943970;0.571000
1026.514893;0.573000
1027.087891;0.578000
1027.665894;0.583000
1028.248901;0.579000
1028.828003;0.576000
1029.403931;0.579000
1029.982910;0.584000
1030.566895;0.587000
1031.153931;0.585000
1031.738892;0.584000
1032.322998;0.585000
1032.907959;0.586000
1033.493896;0.578000
1034.071899;0.579000
1034.651001;0.575000
1035.225952;0.576000
1035.802002;0.578000
1036.380005;0.577000
1036.956909;0.576000
1037.532959;0.577000
1038.109985;0.585000
1038.694946;0.581000
1039.276001;0.582000
1039.857910;0.573000
1040.430908;0.582000
1041.012939;0.576000
1041.588989;0.567000
1042.156006;0.558000
1042.713989;0.555000
1043.268921;0.552000
1043.820923;0.550000
1044.370972;0.552000
1044.922974;0.557000
1045.479980;0.566000
1046.045898;0.584000
1046.630005;0.586000
1047.215942;0.590000
1047.805908;0.595000
1048.401001;0.598000
1048.998901;0.590000
1049.588989;0.589000
1050.177979;0.583000
1050.760986;0.573000
1051.333984;0.569000
1051.902954;0.566000
1052.468994;0.566000
1053.034912;0.565000
1053.599976;0.564000
1054.163940;0.568000
1054.731934;0.576000
1055.307983;0.587000
1055.894897;0.593000
1056.487915;0.587000
1057.074951;0.581000
1057.656006;0.579000
1058.234985;0.580000
1058.814941;0.576000
1059.390991;0.577000
1059.967896;0.573000
1060.540894;0.573000
1061.113892;0.566000
1061.679932;0.562000
1062.241943;0.555000
1062.796997;0.561000
1063.357910;0.575000
1063.932983;0.587000
1064.519897;0.587000
1065.106934;0.600000
1065.706909;0.624000
1066.330933;0.617000
1066.947998;0.605000
1067.552979;0.603000
1068.156006;0.597000
1068.752930;0.583000
1069.335938;0.574000
1069.909912;0.570000
1070.479980;0.572000
1071.052002;0.571000
1071.622925;0.574000
1072.196899;0.584000
1072.781006;0.591000
1073.371948;0.593000
1073.964966;0.601000
1074.565918;0.604000
1075.169922;0.599000
1075.768921;0.592000
1076.360962;0.583000
1076.943970;0.577000
1077.520996;0.563000
1078.083984;0.561000
1078.644897;0.555000
1079.199951;0.560000
1079.760010;0.560000
1080.319946;0.565000
1080.885010;0.570000
1081.454956;0.572000
1082.026978;0.576000
1082.602905;0.576000
1083.178955;0.583000
1083.761963;0.589000
1084.350952;0.580000
1084.930908;0.575000
1085.505981;0.570000
1086.075928;0.566000
1086.641968;0.560000
1087.201904;0.557000
1087.758911;0.553000
1088.311890;0.560000
1088.871948;0.566000
1089.437988;0.576000
1090.013916;0.578000
1090.591919;0.582000
1091.173950;0.588000
1091.761963;0.589000
1092.350952;0.591000
1092.941895;0.588000
1093.529907;0.588000
1094.117920;0.586000
1094.703979;0.580000
1095.283936;0.579000
1095.862915;0.580000
1096.442993;0.580000
1097.022949;0.577000
1097.599976;0.576000
1098.175903;0.575000
1098.750977;0.578000
1099.328979;0.579000
1099.907959;0.579000
1100.486938;0.577000
1101.063965;0.579000
1101.642944;0.581000
1102.223999;0.577000
1102.800903;0.572000
1103.372925;0.561000
1103.933960;0.558000
1104.491943;0.552000
1105.043945;0.558000
1105.601929;0.567000
1106.168945;0.574000
1106.742920;0.575000
1107.317993;0.574000
1107.891968;0.571000
1108.462891;0.564000
1109.026978;0.561000
1109.587891;0.559000
1110.146973;0.555000
1110.701904;0.550000
1111.251953;0.550000
1111.802002;0.555000
1112.356934;0.566000
1112.922974;0.578000
1113.500977;0.586000
1114.086914;0.589000
1114.675903;0.588000
1115.263916;0.586000
1115.849976;0.582000
1116.432007;0.582000
1117.013916;0.582000
1117.595947;0.576000
1118.171997;0.578000
1118.750000;0.573000
1119.322998;0.571000
1119.893921;0.575000
1120.468994;0.563000
1121.031982;0.561000
1121.592896;0.559000
1122.151978;0.560000
1122.711914;0.564000
1123.276001;0.560000
1123.835938;0.556000
1124.391968;0.553000
1124.944946;0.556000
1125.500977;0.555000
1126.055908;0.553000
1126.609009;0.549000
1127.157959;0.558000
1127.715942;0.566000
1128.281982;0.576000
1128.857910;0.578000
1129.435913;0.584000
1130.019897;0.603000
1130.622925;0.608000
1131.230957;0.599000
1131.829956;0.586000
1132.415894;0.584000
1133.000000;0.574000
1133.573975;0.568000
1134.141968;0.563000
1134.704956;0.561000
1135.265991;0.562000
1135.828003;0.563000
1136.390991;0.568000
1136.958984;0.574000
1137.532959;0.583000
1138.115967;0.590000
1138.705933;0.597000
1139.302979;0.598000
1139.901001;0.591000
1140.491943;0.583000
1141.074951;0.577000
1141.651978;0.571000
1142.222900;0.564000
1142.786987;0.561000
1143.347900;0.554000
1143.901978;0.554000
1144.455933;0.556000
1145.011963;0.558000
1145.569946;0.562000
1146.131958;0.579000
1146.710938;0.596000
1147.307007;0.609000
1147.915894;0.606000
1148.521973;0.609000
1149.130981;0.606000
1149.736938;0.596000
1150.333008;0.589000
1150.921997;0.581000
1151.502930;0.575000
1152.078003;0.566000
1152.643921;0.560000
1153.203979;0.559000
1153.762939;0.559000
1154.321899;0.555000
1154.876953;0.557000
1155.433960;0.560000
1155.993896;0.565000
1156.558960;0.570000
1157.128906;0.579000
1157.708008;0.574000
1158.281982;0.577000
1158.859009;0.576000
1159.434937;0.581000
1160.015991;0.580000
1160.595947;0.570000
1161.165894;0.567000
1161.732910;0.560000
1162.292969;0.558000
1162.850952;0.560000
1163.410889;0.557000
1163.967896;0.565000
1164.532959;0.557000
1165.089966;0.557000
1165.646973;0.566000
1166.212891;0.565000
1166.777954;0.561000
1167.338989;0.561000
1167.899902;0.568000
1168.467896;0.562000
1169.029907;0.561000
1169.590942;0.565000
1170.156006;0.579000
1170.734985;0.600000
1171.334961;0.602000
1171.936890;0.595000
1172.531982;0.594000
1173.125977;0.596000
1173.721924;0.582000
1174.303955;0.573000
1174.876953;0.565000
1175.441895;0.559000
1176.000977;0.556000
1176.557007;0.553000
1177.109985;0.557000
1177.666992;0.564000
1178.230957;0.573000
1178.803955;0.577000
1179.380981;0.577000
1179.958008;0.577000
1180.534912;0.581000
1181.115967;0.577000
1181.692993;0.571000
1182.263916;0.570000
1182.833984;0.573000
1183.406982;0.568000
1183.974976;0.568000
1184.542969;0.565000
1185.107910;0.571000
1185.678955;0.576000
1186.255005;0.573000
1186.828003;0.574000
1187.401978;0.569000
1187.970947;0.567000
1188.537964;0.571000
1189.109009;0.571000
1189.679932;0.567000
1190.246948;0.565000
1190.811890;0.567000
1191.378906;0.568000
1191.946899;0.568000
1192.514893;0.565000
1193.079956;0.564000
1193.643921;0.566000
1194.209961;0.564000
1194.773926;0.564000
1195.337891;0.572000
1195.909912;0.567000
1196.476929;0.567000
1197.043945;0.574000
1197.617920;0.571000
1198.188965;0.570000
1198.758911;0.568000
1199.326904;0.568000
1199.894897;0.566000
1200.460938;0.567000
1201.027954;0.567000
1201.594971;0.574000
1202.168945;0.573000
1202.741943;0.577000
1203.318970;0.581000
1203.899902;0.583000
1204.482910;0.582000
1205.064941;0.581000
1205.645996;0.578000
1206.223999;0.580000
1206.803955;0.576000
1207.380005;0.582000
1207.961914;0.577000
1208.538940;0.574000
1209.112915;0.576000
1209.688965;0.573000
1210.261963;0.575000
1210.836914;0.572000
1211.408936;0.563000
1211.971924;0.560000
1212.531982;0.554000
1213.085938;0.548000
1213.633911;0.546000
1214.179932;0.547000
1214.726929;0.546000
1215.272949;0.545000
1215.817993;0.545000
1216.362915;0.552000
1216.914917;0.554000
1217.468994;0.556000
1218.024902;0.557000
1218.581909;0.568000
1219.149902;0.577000
1219.726929;0.579000
1220.305908;0.577000
1220.882935;0.578000
1221.460938;0.582000
1222.042969;0.583000
1222.625977;0.577000
1223.203003;0.573000
1223.776001;0.575000
1224.350952;0.575000
1224.925903;0.579000
1225.505005;0.582000
1226.086914;0.586000
1226.672974;0.579000
1227.251953;0.570000
1227.821899;0.560000
1228.381958;0.557000
1228.938965;0.552000
1229.490967;0.547000
1230.037964;0.549000
1230.586914;0.555000
1231.141968;0.564000
1231.705933;0.572000
1232.277954;0.583000
1232.860962;0.574000
1233.434937;0.573000
1234.007935;0.567000
1234.574951;0.571000
1235.145996;0.571000
1235.716919;0.564000
1236.281006;0.560000
1236.840942;0.552000
1237.392944;0.552000
1237.944946;0.545000
1238.489990;0.541000
1239.031006;0.536000
1239.566895;0.533000
1240.099976;0.533000
1240.632935;0.535000
1241.167969;0.534000
1241.701904;0.537000
1242.238892;0.534000
1242.772949;0.532000
1243.304932;0.529000
1243.833984;0.528000
1244.361938;0.524000
1244.885986;0.523000
1245.408936;0.518000
1245.927002;0.519000
1246.445923;0.518000
1246.963989;0.519000
1247.482910;0.517000
1248.000000;0.508000
1248.507935;0.512000
1249.019897;0.511000
1249.531006;0.507000
1250.037964;0.504000
1250.541992;0.504000
1251.045898;0.510000
1251.555908;0.517000
1252.072998;0.524000
1252.596924;0.540000
1253.136963;0.540000
1253.677002;0.549000
1254.225952;0.562000
1254.787964;0.574000
1255.361938;0.571000
1255.932983;0.570000
1256.502930;0.575000
1257.078003;0.570000
1257.647949;0.565000
1258.212891;0.563000
1258.776001;0.563000
1259.338989;0.563000
1259.901978;0.552000
1260.453979;0.551000
1261.005005;0.548000
1261.552979;0.547000
1262.099976;0.543000
1262.642944;0.539000
1263.182007;0.532000
1263.713989;0.530000
1264.243896;0.529000
1264.772949;0.531000
1265.303955;0.533000
1265.836914;0.531000
1266.367920;0.525000
1266.892944;0.523000
1267.415894;0.514000
1267.929932;0.514000
1268.443970;0.510000
1268.953979;0.506000
1269.459961;0.500000
1269.959961;0.498000
1270.458008;0.498000
1270.955933;0.502000
1271.458008;0.502000
1271.959961;0.513000
1272.472900;0.526000
1272.998901;0.544000
1273.542969;0.609000
1274.151978;0.664000
1274.815918;0.676000
1275.491943;0.637000
1276.128906;0.600000
1276.729004;0.575000
1277.303955;0.565000
1277.868896;0.555000
1278.423950;0.552000
1278.975952;0.555000
1279.531006;0.557000
1280.087891;0.573000
1280.660889;0.563000
1281.223999;0.548000
1281.771973;0.542000
1282.313965;0.541000
1282.854980;0.546000
1283.401001;0.556000
1283.956909;0.561000
1284.517944;0.557000
1285.074951;0.550000
1285.625000;0.539000
1286.163940;0.534000
1286.697998;0.535000
1287.232910;0.548000
1287.781006;0.593000
1288.373901;0.653000
1289.026978;0.713000
1289.739990;0.732000
1290.471924;0.718000
1291.189941;0.705000
1291.894897;0.653000
1292.547974;0.626000
1293.173950;0.595000
1293.768921;0.584000
1294.352905;0.583000
1294.935913;0.584000
1295.519897;0.583000
1296.102905;0.573000
1296.675903;0.565000
1297.240967;0.559000
1297.799927;0.554000
1298.354004;0.548000
1298.901978;0.545000
1299.446899;0.555000
1300.001953;0.551000
1300.552979;0.549000
1301.101929;0.557000
1301.658936;0.560000
1302.218994;0.582000
1302.800903;0.605000
1303.406006;0.743000
1304.148926;0.704000
1304.852905;0.654000
1305.506958;0.619000
1306.125977;0.588000
1306.713989;0.575000
1307.288940;0.561000
1307.849976;0.547000
1308.396973;0.549000
1308.945923;0.550000
1309.495972;0.565000
1310.060913;0.581000
1310.641968;0.586000
1311.227905;0.591000
1311.818970;0.587000
1312.406006;0.589000
1312.994995;0.589000
1313.583984;0.609000
1314.192993;0.626000
1314.818970;0.625000
1315.443970;0.604000
1316.047974;0.583000
1316.630981;0.567000
1317.197998;0.561000
1317.758911;0.549000
1318.307983;0.541000
1318.848999;0.534000
1319.382935;0.531000
1319.913940;0.532000
1320.445923;0.533000
1320.979004;0.536000
1321.514893;0.543000
1322.057983;0.554000
1322.611938;0.567000
1323.178955;0.569000
1323.747925;0.572000
1324.319946;0.591000
1324.910889;0.596000
1325.506958;0.589000
1326.095947;0.581000
1326.677002;0.578000
1327.255005;0.587000
1327.841919;0.582000
1328.423950;0.582000
1329.005981;0.583000
1329.588989;0.589000
1330.177979;0.601000
1330.778931;0.595000
1331.373901;0.601000
1331.974976;0.602000
1332.576904;0.601000
1333.177979;0.591000
1333.768921;0.583000
1334.351929;0.585000
1334.936890;0.589000
1335.526001;0.580000
1336.105957;0.581000
1336.686890;0.582000
1337.268921;0.583000
1337.851929;0.588000
1338.439941;0.594000
1339.033936;0.606000
1339.639893;0.612000
1340.251953;0.619000
1340.870972;0.611000
1341.481934;0.612000
1342.093994;0.630000
1342.723999;0.607000
1343.330933;0.597000
1343.927979;0.586000
1344.513916;0.577000
1345.090942;0.576000
1345.666992;0.581000
1346.247925;0.583000
1346.830933;0.583000
1347.413940;0.586000
1348.000000;0.592000
1348.591919;0.601000
1349.192993;0.611000
1349.803955;0.611000
1350.414917;0.611000
1351.026001;0.608000
1351.633911;0.607000
1352.240967;0.604000
1352.844971;0.593000
1353.437988;0.586000
1354.023926;0.583000
1354.606934;0.582000
1355.188965;0.586000
1355.774902;0.595000
1356.369995;0.596000
1356.965942;0.599000
1357.564941;0.607000
1358.171997;0.608000
1358.779907;0.609000
1359.388916;0.605000
1359.993896;0.595000
1360.588989;0.600000
1361.188965;0.594000
1361.782959;0.591000
1362.373901;0.587000
1362.960938;0.581000
1363.541992;0.575000
1364.116943;0.570000
1364.686890;0.567000
1365.253906;0.564000
1365.817993;0.563000
1366.380981;0.578000
1366.958984;0.586000
1367.544922;0.583000
1368.127930;0.582000
1368.709961;0.571000
1369.281006;0.563000
1369.843994;0.554000
1370.397949;0.546000
1370.943970;0.538000
1371.481934;0.535000
1372.016968;0.553000
1372.569946;0.588000
1373.157959;0.621000
1373.778931;0.632000
1374.410889;0.627000
1375.037964;0.611000
1375.648926;0.600000
1376.248901;0.592000
1376.840942;0.583000
1377.423950;0.590000
1378.013916;0.603000
1378.616943;0.636000
1379.252930;0.655000
1379.907959;0.660000
1380.567993;0.657000
1381.224976;0.644000
1381.868896;0.633000
1382.501953;0.617000
1383.118896;0.607000
1383.725952;0.595000
1384.320923;0.586000
1384.906982;0.580000
1385.486938;0.573000
1386.059937;0.571000
1386.630981;0.563000
1387.193970;0.563000
1387.756958;0.566000
1388.322998;0.570000
1388.892944;0.576000
1389.468994;0.577000
1390.045898;0.585000
1390.630981;0.606000
1391.236938;0.605000
1391.841919;0.602000
1392.443970;0.589000
1393.032959;0.585000
1393.617920;0.581000
1394.198975;0.576000
1394.774902;0.571000
1395.345947;0.576000
1395.921997;0.580000
1396.501953;0.583000
1397.084961;0.586000
1397.670898;0.586000
1398.256958;0.596000
1398.852905;0.599000
1399.451904;0.599000
1400.050903;0.589000
1400.639893;0.584000
1401.223999;0.578000
1401.802002;0.572000
1402.373901;0.573000
1402.946899;0.568000
1403.514893;0.566000
1404.080933;0.563000
1404.643921;0.561000
1405.204956;0.567000
1405.771973;0.573000
1406.344971;0.575000
1406.919922;0.590000
1407.510010;0.610000
1408.119995;0.617000
1408.736938;0.603000
1409.339966;0.593000
1409.932983;0.597000
1410.529907;0.581000
1411.110962;0.568000
1411.678955;0.564000
1412.242920;0.557000
1412.799927;0.554000
1413.354004;0.549000
1413.902954;0.547000
1414.449951;0.541000
1414.990967;0.541000
1415.531982;0.544000
1416.075928;0.551000
1416.626953;0.558000
1417.184937;0.563000
1417.747925;0.569000
1418.316895;0.559000
1418.875977;0.553000
1419.428955;0.553000
1419.981934;0.553000
1420.534912;0.569000
1421.104004;0.581000
1421.684937;0.578000
1422.262939;0.580000
1422.842896;0.580000
1423.422974;0.584000
1424.006958;0.584000
1424.590942;0.581000
1425.171997;0.579000
1425.750977;0.582000
1426.333008;0.587000
1426.919922;0.586000
1427.505981;0.589000
1428.094971;0.593000
1428.687988;0.599000
1429.286987;0.607000
1429.893921;0.607000
1430.500977;0.608000
1431.109009;0.613000
1431.721924;0.614000
1432.335938;0.605000
1432.940918;0.603000
1433.543945;0.597000
1434.140991;0.603000
1434.743896;0.599000
1435.342896;0.600000
1435.942993;0.600000
1436.542969;0.606000
1437.148926;0.609000
1437.757935;0.605000
1438.362915;0.604000
1438.966919;0.608000
1439.574951;0.615000
1440.189941;0.611000
1440.800903;0.613000
1441.413940;0.611000
1442.024902;0.612000
1442.636963;0.606000
1443.242920;0.602000
1443.844971;0.600000
1444.444946;0.598000
1445.042969;0.592000
1445.635010;0.597000
1446.231934;0.599000
1446.830933;0.601000
1447.432007;0.605000
1448.036987;0.607000
1448.643921;0.612000
1449.255981;0.613000
1449.868896;0.607000
1450.475952;0.596000
1451.071899;0.592000
1451.663940;0.585000
1452.248901;0.587000
1452.835938;0.597000
1453.432983;0.608000
1454.040894;0.625000
1454.665894;0.642000
1455.307983;0.652000
1455.959961;0.631000
1456.590942;0.628000
1457.218994;0.622000
1457.840942;0.609000
1458.449951;0.608000
1459.057983;0.598000
1459.656006;0.586000
1460.241943;0.572000
1460.813965;0.566000
1461.380005;0.558000
1461.937988;0.550000
1462.487915;0.556000
1463.043945;0.561000
1463.604980;0.573000
1464.177979;0.576000
1464.753906;0.584000
1465.337891;0.595000
1465.932983;0.603000
1466.535889;0.594000
1467.130005;0.593000
1467.722900;0.586000
1468.308960;0.587000
1468.895996;0.581000
1469.476929;0.573000
1470.049927;0.570000
1470.619995;0.572000
1471.191895;0.564000
1471.755981;0.563000
1472.318970;0.564000
1472.882935;0.570000
1473.453003;0.580000
1474.032959;0.591000
1474.623901;0.609000
1475.232910;0.609000
1475.841919;0.609000
1476.450928;0.600000
1477.050903;0.594000
1477.644897;0.586000
1478.230957;0.587000
1478.817993;0.589000
1479.406982;0.584000
1479.990967;0.574000
1480.564941;0.576000
1481.140991;0.570000
1481.710938;0.562000
1482.272949;0.555000
1482.828003;0.559000
1483.386963;0.557000
1483.943970;0.574000
1484.517944;0.589000
1485.106934;0.600000
1485.706909;0.610000
1486.316895;0.603000
1486.919922;0.597000
1487.516968;0.599000
1488.115967;0.594000
1488.709961;0.587000
1489.296997;0.583000
1489.880005;0.581000
1490.460938;0.586000
1491.046997;0.593000
1491.639893;0.595000
1492.234985;0.598000
1492.833008;0.594000
1493.427002;0.600000
1494.026978;0.610000
1494.636963;0.604000
1495.240967;0.604000
1495.844971;0.601000
1496.445923;0.605000
1497.050903;0.601000
1497.651978;0.602000
1498.253906;0.605000
1498.859009;0.606000
1499.464966;0.610000
1500.074951;0.605000
1500.679932;0.595000
1501.274902;0.592000
1501.866943;0.591000
1502.458008;0.592000
1503.049927;0.587000
1503.636963;0.586000
1504.222900;0.584000
1504.807007;0.587000
1505.393921;0.592000
1505.985962;0.589000
1506.574951;0.595000
1507.169922;0.596000
1507.765991;0.601000
1508.366943;0.615000
1508.981934;0.616000
1509.597900;0.634000
1510.231934;0.625000
1510.856934;0.611000
1511.467896;0.597000
1512.064941;0.589000
1512.653931;0.583000
1513.236938;0.576000
1513.812988;0.566000
1514.378906;0.563000
1514.941895;0.563000
1515.505005;0.565000
1516.069946;0.565000
1516.635010;0.573000
1517.208008;0.587000
1517.794922;0.617000
1518.411987;0.664000
1519.075928;0.652000
1519.727905;0.640000
1520.367920;0.638000
1521.005981;0.640000
1521.645996;0.630000
1522.276001;0.618000
1522.893921;0.611000
1523.505005;0.607000
1524.111938;0.595000
1524.706909;0.583000
1525.289917;0.577000
1525.866943;0.577000
1526.443970;0.579000
1527.022949;0.582000
1527.604980;0.601000
1528.205933;0.622000
1528.828003;0.665000
1529.492920;0.666000
1530.158936;0.672000
1530.830933;0.669000
1531.500000;0.654000
1532.153931;0.629000
1532.782959;0.620000
1533.402954;0.603000
1534.005981;0.603000
1534.609009;0.597000
1535.205933;0.590000
1535.795898;0.591000
1536.386963;0.590000
1536.976929;0.583000
1537.559937;0.581000
1538.140991;0.590000
1538.730957;0.608000
1539.338989;0.625000
1539.963989;0.630000
1540.593994;0.636000
1541.229980;0.642000
1541.871948;0.650000
1542.521973;0.624000
1543.145996;0.620000
1543.765991;0.615000
1544.380981;0.611000
1544.991943;0.605000
1545.596924;0.597000
1546.193970;0.594000
1546.787964;0.592000
1547.380005;0.593000
1547.972900;0.594000
1548.566895;0.589000
1549.156006;0.588000
1549.743896;0.596000
1550.339966;0.602000
1550.941895;0.605000
1551.546997;0.603000
1552.149902;0.601000
1552.750977;0.593000
1553.343994;0.589000
1553.932983;0.582000
1554.514893;0.580000
1555.094971;0.581000
1555.675903;0.581000
1556.256958;0.585000
1556.841919;0.597000
1557.438965;0.607000
1558.045898;0.615000
1558.660889;0.625000
1559.285889;0.636000
1559.921997;0.621000
1560.542969;0.617000
1561.159912;0.611000
1561.770996;0.604000
1562.375000;0.596000
1562.970947;0.583000
1563.553955;0.581000
1564.135010;0.574000
1564.708984;0.569000
1565.277954;0.574000
1565.851929;0.571000
1566.422974;0.575000
1566.997925;0.577000
1567.574951;0.583000
1568.157959;0.587000
1568.744995;0.594000
1569.338989;0.598000
1569.936890;0.599000
1570.535889;0.598000
1571.133911;0.598000
1571.731934;0.593000
1572.324951;0.588000
1572.912964;0.588000
1573.500977;0.586000
1574.086914;0.583000
1574.669922;0.586000
1575.255981;0.589000
1575.844971;0.589000
1576.433960;0.591000
1577.024902;0.587000
1577.611938;0.589000
1578.200928;0.587000
1578.787964;0.591000
1579.378906;0.592000
1579.970947;0.588000
1580.558960;0.590000
1581.148926;0.593000
1581.741943;0.595000
1582.336914;0.594000
1582.930908;0.600000
1583.531006;0.601000
1584.131958;0.603000
1584.734985;0.601000
1585.335938;0.594000
1585.929932;0.590000
1586.519897;0.585000
1587.104980;0.582000
1587.686890;0.584000
1588.270996;0.588000
1588.859009;0.593000
1589.451904;0.600000
1590.052002;0.597000
1590.648926;0.598000
1591.246948;0.597000
1591.843994;0.596000
1592.439941;0.596000
1593.035889;0.586000
1593.621948;0.586000
1594.208008;0.583000
1594.790894;0.581000
1595.371948;0.582000
1595.953979;0.576000
1596.529907;0.578000
1597.107910;0.583000
1597.690918;0.586000
1598.276978;0.589000
1598.865967;0.594000
1599.459961;0.603000
1600.062988;0.610000
1600.672974;0.610000
1601.282959;0.605000
1601.887939;0.603000
1602.490967;0.598000
1603.088989;0.596000
1603.684937;0.591000
1604.276001;0.590000
1604.865967;0.590000
1605.455933;0.587000
1606.042969;0.592000
1606.635010;0.592000
1607.226929;0.595000
1607.821899;0.600000
1608.421997;0.602000
1609.023926;0.606000
1609.630005;0.600000
1610.229980;0.598000
1610.828003;0.600000
1611.427979;0.596000
1612.023926;0.599000
1612.622925;0.591000
1613.213989;0.592000
1613.805908;0.591000
1614.396973;0.598000
1614.994995;0.601000
1615.595947;0.598000
1616.193970;0.597000
1616.790894;0.596000
1617.386963;0.601000
1617.987915;0.598000
1618.585938;0.591000
1619.177002;0.589000
1619.765991;0.588000
1620.354004;0.589000
1620.942993;0.586000
1621.528931;0.586000
1622.114990;0.591000
1622.705933;0.600000
1623.305908;0.605000
1623.910889;0.604000
1624.514893;0.609000
1625.123901;0.607000
1625.730957;0.612000
1626.342896;0.606000
1626.948975;0.605000
1627.553955;0.608000
1628.161987;0.611000
1628.772949;0.618000
1629.390991;0.609000
1630.000000;0.606000
1630.605957;0.600000
1631.205933;0.606000
1631.811890;0.599000
1632.410889;0.597000
1633.007935;0.597000
1633.604980;0.605000
1634.209961;0.618000
1634.828003;0.618000
1635.445923;0.618000
1636.063965;0.619000
1636.682983;0.616000
1637.298950;0.615000
1637.913940;0.610000
1638.523926;0.609000
1639.132935;0.612000
1639.744995;0.612000
1640.356934;0.599000
1640.955933;0.594000
1641.549927;0.581000
1642.130981;0.577000
1642.708008;0.570000
1643.277954;0.571000
1643.848999;0.574000
1644.422974;0.578000
1645.000977;0.577000
1645.578003;0.572000
1646.149902;0.574000
1646.723999;0.576000
1647.299927;0.574000
1647.873901;0.577000
1648.450928;0.575000
1649.026001;0.575000
1649.600952;0.583000
1650.183960;0.582000
1650.765991;0.581000
1651.346924;0.579000
1651.925903;0.583000
1652.508911;0.588000
1653.096924;0.586000
1653.682983;0.591000
1654.273926;0.595000
1654.868896;0.599000
1655.467896;0.604000
1656.071899;0.601000
1656.672974;0.598000
1657.270996;0.597000
1657.867920;0.597000
1658.464966;0.597000
1659.061890;0.590000
1659.651978;0.587000
1660.238892;0.586000
1660.824951;0.589000
1661.413940;0.589000
1662.002930;0.588000
1662.590942;0.583000
1663.173950;0.590000
1663.763916;0.597000
1664.360962;0.598000
1664.958984;0.595000
1665.553955;0.594000
1666.147949;0.596000
1666.743896;0.599000
1667.342896;0.602000
1667.944946;0.595000
1668.539917;0.592000
1669.131958;0.592000
1669.723999;0.596000
1670.319946;0.592000
1670.911987;0.586000
1671.497925;0.584000
1672.081909;0.581000
1672.662964;0.580000
1673.242920;0.579000
1673.821899;0.583000
1674.404907;0.589000
1674.993896;0.610000
1675.604004;0.623000
1676.226929;0.620000
1676.846924;0.619000
1677.465942;0.617000
1678.083008;0.603000
1678.685913;0.582000
1679.267944;0.576000
1679.843994;0.567000
1680.410889;0.566000
1680.976929;0.566000
1681.542969;0.558000
1682.100952;0.557000
1682.657959;0.554000
1683.211914;0.559000
1683.770996;0.563000
1684.333984;0.567000
1684.901001;0.571000
1685.471924;0.579000
1686.050903;0.591000
1686.641968;0.612000
1687.253906;0.622000
1687.875977;0.625000
1688.500977;0.626000
1689.126953;0.619000
1689.745972;0.615000
1690.360962;0.603000
1690.963989;0.596000
1691.559937;0.590000
1692.149902;0.587000
1692.736938;0.579000
1693.315918;0.577000
1693.892944;0.583000
1694.475952;0.588000
1695.063965;0.593000
1695.656982;0.604000
1696.260986;0.608000
1696.868896;0.613000
1697.481934;0.609000
1698.090942;0.601000
1698.691895;0.598000
1699.289917;0.597000
1699.886963;0.593000
1700.479980;0.589000
1701.068970;0.576000
1701.644897;0.570000
1702.214966;0.561000
1702.776001;0.564000
1703.339966;0.574000
1703.913940;0.584000
1704.497925;0.606000
1705.104004;0.615000
1705.718994;0.633000
1706.351929;0.636000
1706.987915;0.625000
1707.612915;0.615000
1708.227905;0.607000
1708.834961;0.600000
1709.434937;0.590000
1710.024902;0.588000
1710.612915;0.582000
1711.194946;0.581000
1711.776001;0.579000
1712.354980;0.572000
1712.927002;0.572000
1713.498901;0.574000
1714.072998;0.578000
1714.651001;0.588000
1715.238892;0.585000
1715.823975;0.585000
1716.408936;0.583000
1716.991943;0.584000
1717.575928;0.585000
1718.160889;0.580000
1718.740967;0.577000
1719.317993;0.573000
1719.890991;0.574000
1720.464966;0.576000
1721.040894;0.576000
1721.616943;0.567000
1722.183960;0.564000
1722.747925;0.561000
1723.308960;0.565000
1723.873901;0.570000
1724.443970;0.570000
1725.013916;0.570000
1725.583984;0.573000
1726.156982;0.578000
1726.734985;0.579000
1727.313965;0.577000
1727.890991;0.574000
1728.464966;0.570000
1729.034912;0.569000
1729.604004;0.572000
1730.175903;0.583000
1730.758911;0.579000
1731.337891;0.577000
1731.914917;0.571000
1732.485962;0.570000
1733.055908;0.569000
1733.625000;0.568000
1734.192993;0.568000
1734.760986;0.577000
1735.337891;0.596000
1735.933960;0.606000
1736.539917;0.604000
1737.143921;0.609000
1737.752930;0.611000
1738.363892;0.606000
1738.969971;0.598000
1739.567993;0.598000
1740.165894;0.595000
1740.760986;0.588000
1741.348999;0.581000
1741.929932;0.582000
1742.511963;0.581000
1743.092896;0.586000
1743.678955;0.588000
1744.266968;0.590000
1744.856934;0.588000
1745.444946;0.586000
1746.031006;0.586000
1746.616943;0.587000
1747.203979;0.587000
1747.790894;0.583000
1748.373901;0.585000
1748.958984;0.590000
1749.548950;0.600000
1750.148926;0.606000
1750.755005;0.606000
1751.360962;0.599000
1751.959961;0.597000
1752.557007;0.594000
1753.151001;0.586000
1753.736938;0.603000
1754.339966;0.603000
1754.942993;0.593000
1755.535889;0.587000
1756.122925;0.577000
1756.699951;0.575000
1757.274902;0.572000
1757.846924;0.572000
1758.418945;0.581000
1759.000000;0.615000
1759.614990;0.651000
1760.265991;0.675000
1760.940918;0.678000
1761.618896;0.692000
1762.310913;0.663000
1762.973999;0.634000
1763.607910;0.614000
1764.221924;0.596000
1764.817993;0.589000
1765.406982;0.582000
1765.988892;0.576000
1766.564941;0.577000
1767.141968;0.576000
1767.717896;0.573000
1768.290894;0.569000
1768.859985;0.569000
1769.428955;0.571000
1770.000000;0.573000
1770.572998;0.583000
1771.156006;0.592000
1771.747925;0.592000
1772.339966;0.583000
1772.922974;0.580000
1773.502930;0.583000
1774.085938;0.589000
1774.674927;0.591000
1775.265991;0.589000
1775.854980;0.596000
1776.450928;0.588000
1777.038940;0.582000
1777.620972;0.573000
1778.193970;0.566000
1778.760010;0.556000
1779.315918;0.556000
1779.871948;0.556000
1780.427979;0.578000
1781.005981;0.602000
1781.607910;0.675000
1782.282959;0.701000
1782.984009;0.694000
1783.677979;0.671000
1784.348999;0.636000
1784.984985;0.610000
1785.594971;0.595000
1786.189941;0.585000
1786.774902;0.579000
1787.354004;0.578000
1787.932007;0.583000
1788.514893;0.593000
1789.107910;0.611000
1789.718994;0.633000
1790.351929;0.659000
1791.010986;0.645000
1791.656006;0.639000
1792.294922;0.609000
1792.903931;0.593000
1793.496948;0.588000
1794.084961;0.579000
1794.663940;0.577000
1795.240967;0.570000
1795.810913;0.573000
1796.383911;0.573000
1796.956909;0.581000
1797.537964;0.590000
1798.127930;0.604000
1798.731934;0.606000
1799.337891;0.621000
1799.958984;0.630000
1800.588989;0.639000
1801.227905;0.632000
1801.859985;0.623000
1802.482910;0.612000
1803.094971;0.604000
1803.698975;0.592000
1804.290894;0.593000
1804.883911;0.583000
1805.466919;0.578000
1806.044922;0.582000
1806.626953;0.578000
1807.204956;0.578000
1807.782959;0.578000
1808.360962;0.572000
1808.932983;0.571000
1809.503906;0.567000
1810.070923;0.562000
1810.632935;0.561000
1811.193970;0.571000
1811.764893;0.592000
1812.356934;0.647000
1813.003906;0.679000
1813.682983;0.664000
1814.346924;0.639000
1814.985962;0.622000
1815.607910;0.600000
1816.208008;0.591000
1816.798950;0.582000
1817.380981;0.583000
1817.963989;0.583000
1818.546997;0.586000
1819.132935;0.594000
1819.726929;0.588000
1820.314941;0.585000
1820.899902;0.584000
1821.484009;0.581000
1822.064941;0.579000
1822.643921;0.577000
1823.220947;0.580000
1823.800903;0.583000
1824.383911;0.587000
1824.970947;0.588000
1825.558960;0.588000
1826.146973;0.588000
1826.734985;0.590000
1827.324951;0.593000
1827.917969;0.600000
1828.517944;0.610000
1829.127930;0.603000
1829.730957;0.598000
1830.328979;0.586000
1830.914917;0.576000
1831.490967;0.562000
1832.052979;0.563000
1832.615967;0.559000
1833.174927;0.559000
1833.734009;0.563000
1834.296997;0.568000
1834.864990;0.568000
1835.432983;0.565000
1835.997925;0.565000
1836.562988;0.558000
1837.120972;0.560000
1837.680908;0.560000
1838.240967;0.567000
1838.807983;0.581000
1839.388916;0.588000
1839.976929;0.596000
1840.572998;0.606000
1841.178955;0.604000
1841.782959;0.605000
1842.387939;0.595000
1842.982910;0.584000
1843.566895;0.582000
1844.148926;0.579000
1844.727905;0.577000
1845.304932;0.572000
1845.876953;0.569000
1846.445923;0.574000
1847.019897;0.583000
1847.602905;0.624000
1848.226929;0.674000
1848.901001;0.662000
1849.562988;0.658000
1850.220947;0.649000
1850.869995;0.648000
1851.517944;0.629000
