timestamp;value
2.555580;0.746640
2.667795;0.116144
3.589735;0.862784
4.272294;0.746640
5.341531;0.995520
6.023584;0.730048
6.413654;0.398208
7.019226;0.530944
7.487656;0.564128
8.169587;0.597312
9.159522;0.580720
9.534995;0.530944
9.827030;0.547536
10.608882;0.564128
10.902200;0.564128
11.484142;0.547536
12.170566;0.530944
12.582420;0.547536
13.436839;0.547536
13.825216;0.547536
14.214747;0.597312
14.802419;0.580720
15.608459;0.514352
15.871065;0.530944
16.850609;0.630496
17.045490;0.564128
17.628120;0.580720
18.114628;0.514352
19.091284;0.530944
19.286474;0.514352
19.871550;0.647088
20.161987;0.282064
21.138859;0.663680
21.531235;0.613904
22.406713;0.564128
22.795401;0.564128
23.188702;0.580720
23.672018;0.580720
24.648750;0.580720
24.847061;0.564128
25.823792;0.547536
26.210304;0.564128
26.501114;0.547536
27.410263;0.564128
27.771053;0.547536
28.159861;0.580720
28.742710;0.564128
29.620228;0.597312
29.914328;0.580720
30.888861;0.613904
31.181438;0.580720
31.766167;0.580720
32.742477;0.613904
33.034859;0.580720
33.520306;0.613904
34.497097;0.597312
34.692955;0.580720
35.274811;0.597312
36.156483;0.630496
36.542778;0.580720
37.129463;0.597312
38.006889;0.613904
38.396164;0.613904
38.991371;0.630496
39.665226;0.597312
40.152405;0.597312
41.225254;0.862784
41.710423;0.647088
42.690037;0.613904
43.076603;0.613904
43.465363;0.597312
44.537434;0.763232
44.832111;0.580720
45.318516;0.414800
45.904057;0.663680
46.590748;0.630496
47.169838;0.613904
47.854187;0.647088
48.732765;0.630496
49.709625;1.061888
50.096825;0.564128
50.683071;0.564128
51.657047;0.597312
52.048466;0.647088
52.435555;0.514352
53.410656;0.580720
53.711918;0.597312
54.677677;0.663680
55.071884;0.696864
55.360023;0.431392
56.438366;0.663680
57.214970;0.746640
57.605530;0.613904
57.992764;0.613904
58.970490;0.663680
59.359516;0.663680
60.335197;0.514352
60.723682;0.680272
61.212753;0.696864
61.892593;0.613904
62.577190;0.730048
63.551243;0.630496
63.943707;0.613904
64.427521;0.580720
64.817604;0.398208
65.796883;0.680272
66.183472;0.663680
66.867775;0.730048
67.647697;0.763232
68.815735;0.763232
69.210472;0.647088
69.694901;0.630496
70.279938;0.597312
71.061714;0.564128
71.841873;0.564128
72.132118;0.514352
72.521301;0.564128
73.107552;0.564128
74.082222;0.630496
74.277199;0.580720
74.862343;0.580720
75.750633;0.564128
76.323410;0.580720
76.616577;0.580720
77.202614;0.613904
77.786270;0.597312
78.764671;0.597312
79.153564;0.613904
80.047562;0.696864
80.224854;0.564128
80.808327;0.580720
81.491547;0.613904
82.368797;0.613904
82.662987;0.580720
83.245499;0.547536
83.929108;0.580720
84.806961;0.547536
85.197395;0.647088
86.073586;0.746640
86.563065;0.862784
87.147972;0.597312
88.022903;0.580720
88.412964;0.613904
88.901070;0.547536
89.682243;0.580720
90.070526;0.514352
91.045471;0.597312
91.341637;0.564128
91.827667;0.663680
92.313683;0.497760
93.291954;0.647088
93.486626;0.514352
94.167732;0.696864
95.045174;0.813008
95.823120;0.763232
96.799881;0.647088
97.094101;0.564128
97.580376;0.613904
98.555153;0.630496
98.946556;0.597312
99.822487;0.597312
100.113907;0.663680
101.091080;0.597312
101.385086;0.613904
101.967720;0.647088
102.550644;0.597312
103.428841;0.613904
103.818169;0.630496
104.698166;0.613904
105.184547;0.630496
105.671883;0.630496
106.353279;0.630496
106.938309;0.630496
107.525284;0.613904
108.205887;0.613904
108.792885;0.613904
109.379501;0.613904
110.253891;0.613904
110.643219;0.613904
111.233597;0.613904
111.916954;0.613904
112.983437;0.613904
113.568779;0.613904
113.864769;0.597312
114.351486;0.630496
115.323997;0.613904
115.619446;0.613904
116.201584;0.613904
117.080643;0.613904
117.373390;0.630496
118.053963;0.613904
118.740791;0.597312
119.228256;0.597312
119.809380;0.613904
120.787300;0.597312
121.076141;0.597312
121.663261;0.597312
122.247612;0.597312
122.832130;0.613904
123.810135;0.630496
124.102203;0.613904
124.685944;0.613904
125.756721;0.613904
126.150124;0.613904
126.536026;0.597312
127.321289;0.597312
127.708298;0.597312
128.293152;0.597312
129.075745;0.613904
129.584625;0.580720
130.144424;0.613904
130.730896;0.597312
131.316208;0.597312
131.900772;0.597312
132.782547;0.597312
133.167221;0.597312
133.751190;0.597312
134.631042;0.597312
134.922760;0.580720
135.506897;0.580720
136.384277;0.580720
136.678543;0.580720
137.261322;0.580720
138.044724;0.580720
138.434113;0.597312
139.311996;0.597312
139.608429;0.597312
140.483658;0.613904
140.773926;0.597312
141.652298;0.613904
142.039108;0.580720
142.624039;0.597312
143.210571;0.597312
143.793839;0.580720
144.383148;0.564128
145.258850;0.564128
145.457977;0.564128
146.234070;0.564128
146.625031;0.580720
147.206497;0.564128
147.791687;0.580720
148.768265;0.597312
149.063171;0.597312
149.548752;0.630496
150.426666;0.597312
150.816147;0.597312
151.399994;0.597312
151.984131;0.597312
152.571304;0.580720
153.060730;0.530944
153.844543;0.564128
154.226776;0.580720
154.813812;0.564128
155.396774;0.547536
155.884857;0.547536
156.862061;0.564128
157.055542;0.547536
157.542572;0.547536
158.127487;0.564128
158.711044;0.564128
159.297638;0.580720
160.370117;0.597312
160.666092;0.613904
161.052948;0.613904
162.030746;0.630496
162.320389;0.613904
163.002075;0.613904
163.587189;0.597312
164.174255;0.597312
164.756744;0.597312
165.541153;0.580720
165.929855;0.597312
166.511841;0.597312
167.096863;0.597312
167.978683;0.580720
168.269409;0.597312
169.144455;0.580720
169.439575;0.597312
170.024734;0.580720
170.900452;0.580720
171.289307;0.597312
171.876358;0.597312
172.459549;0.613904
173.448593;0.597312
173.790741;0.613904
174.800079;0.597312
175.190613;0.613904
175.482483;0.597312
176.066910;0.580720
176.654160;0.580720
177.236862;0.597312
177.822937;0.580720
178.410263;0.597312
179.286545;0.613904
179.674393;0.613904
180.357391;0.630496
181.138428;0.630496
181.526932;0.597312
182.405807;0.613904
183.184662;0.597312
183.383331;0.597312
183.965027;0.613904
184.842621;0.580720
185.136414;0.613904
185.721405;0.597312
186.304504;0.597312
186.991409;0.613904
187.962616;0.597312
188.355225;0.597312
188.742142;0.580720
189.327744;0.597312
190.205017;0.580720
190.597046;0.580720
190.987122;0.564128
191.963425;0.580720
192.253555;0.564128
192.742188;0.597312
193.618057;0.597312
193.912552;0.580720
194.594315;0.613904
195.474335;0.613904
195.762177;0.597312
196.740463;0.597312
197.128525;0.580720
197.518021;0.597312
198.496048;0.597312
198.786911;0.580720
199.272552;0.564128
199.859512;0.580720
200.832932;0.597312
201.029465;0.597312
202.005707;0.580720
202.396133;0.613904
202.881714;0.613904
203.757874;0.597312
204.052750;0.613904
205.028442;0.597312
205.709656;0.580720
206.001862;0.597312
206.488007;0.580720
207.365448;0.597312
207.657898;0.580720
208.242706;0.597312
209.219879;0.580720
209.607513;0.597312
209.997437;0.580720
210.972458;0.564128
211.364365;0.580720
211.752411;0.580720
212.632828;0.580720
213.024551;0.580720
213.509674;0.597312
214.092499;0.597312
214.875366;0.580720
215.264420;0.580720
216.046936;0.597312
216.432877;0.564128
217.017548;0.580720
217.802109;0.564128
218.579834;0.597312
218.872696;0.597312
219.357666;0.580720
219.942764;0.580720
220.823303;0.564128
221.212723;0.613904
221.699753;0.647088
222.380508;0.630496
223.258224;0.630496
223.552200;0.580720
224.135345;0.597312
225.017303;0.580720
225.307343;0.597312
226.377747;0.597312
226.769470;0.597312
227.158081;0.597312
227.745544;0.597312
228.327728;0.613904
229.012756;0.613904
229.795135;0.597312
230.180649;0.580720
230.767487;0.613904
231.549515;0.613904
232.130753;0.746640
232.520401;0.381616
233.302994;0.647088
233.692596;0.564128
234.277390;0.597312
235.155167;0.613904
235.543350;0.580720
236.128281;0.630496
236.715454;0.597312
237.497528;0.547536
237.883011;0.613904
238.765396;0.580720
239.151154;0.613904
239.640030;0.530944
240.520065;0.597312
240.810181;0.613904
241.492828;0.630496
242.370010;0.597312
242.662766;0.613904
243.542572;0.613904
243.928574;0.613904
244.516006;0.613904
245.195679;0.630496
246.170670;0.597312
246.370331;0.597312
247.345108;0.613904
247.538071;0.597312
248.220413;0.597312
249.098618;0.597312
249.584259;0.597312
249.975266;0.597312
250.558212;0.597312
251.340790;0.597312
252.120895;0.580720
252.414185;0.597312
252.902481;0.597312
253.580688;0.597312
254.363083;0.580720
254.750778;0.597312
255.335968;0.597312
256.313843;0.580720
256.607910;0.613904
257.091553;0.580720
257.873627;0.580720
258.260864;0.564128
258.845337;0.580720
259.821411;0.580720
260.211914;0.597312
260.608154;0.597312
261.188049;0.597312
261.773132;0.613904
262.844086;0.613904
263.234467;0.613904
263.623962;0.597312
264.617462;0.613904
264.895599;0.597312
265.382080;0.564128
265.968018;0.564128
266.745178;0.564128
267.135498;0.564128
267.718475;0.580720
268.596405;0.580720
268.888458;0.580720
269.473541;0.597312
270.257050;0.597312
270.646210;0.613904
271.229797;0.597312
271.814453;0.597312
272.401367;0.597312
273.081116;0.597312
273.961731;0.580720
274.351654;0.630496
275.228149;0.547536
275.521790;0.564128
276.006409;0.597312
276.981537;0.580720
277.177429;0.597312
277.958191;0.564128
278.250793;0.564128
279.129486;0.564128
279.517670;0.580720
280.395905;0.564128
280.594086;0.580720
281.174011;0.580720
282.151001;0.597312
282.541229;0.597312
282.929260;0.613904
284.001465;0.613904
284.488892;0.613904
284.784119;0.613904
285.368744;0.613904
286.243744;0.597312
286.633911;0.580720
287.218781;0.597312
288.100128;0.580720
288.390137;0.597312
289.174896;0.564128
289.558960;0.580720
290.047852;0.580720
290.925873;0.597312
291.313873;0.580720
291.899170;0.597312
292.874481;0.580720
293.169067;0.597312
293.653870;0.613904
294.631042;0.597312
294.925232;0.613904
295.506897;0.597312
296.385742;0.597312
296.676758;0.597312
297.263489;0.597312
298.044159;0.580720
298.433746;0.597312
299.018677;0.580720
299.800201;0.597312
300.188660;0.580720
300.773651;0.597312
301.649750;0.597312
302.039001;0.580720
302.820770;0.597312
303.115295;0.580720
303.699646;0.580720
304.284729;0.580720
304.972137;0.597312
305.843292;0.580720
306.038788;0.580720
306.719086;0.597312
307.304352;0.597312
308.282623;0.613904
308.768524;0.597312
309.060242;0.597312
309.741760;0.613904
310.621765;0.580720
310.914246;0.613904
311.790802;0.580720
312.182159;0.597312
312.668732;0.597312
313.544739;0.597312
314.328522;0.580720
314.618561;0.597312
315.006042;0.564128
315.495514;0.497760
316.182037;0.630496
317.054108;0.597312
317.348175;0.481168
317.834930;0.597312
318.423218;0.613904
319.204926;0.597312
319.687744;0.647088
320.176514;0.497760
320.662628;0.514352
321.249756;0.547536
322.029510;0.381616
322.322021;0.497760
322.667480;0.530944
323.197418;0.530944
324.172638;0.564128
324.466003;0.497760
324.855652;0.630496
325.637482;0.398208
325.935425;0.597312
326.709900;0.862784
327.390228;0.613904
327.877167;0.514352
328.267609;0.381616
328.854279;0.580720
329.731903;0.547536
330.217651;0.547536
330.611359;0.564128
331.000549;0.530944
331.685577;0.564128
332.167786;0.547536
332.854309;0.597312
333.728394;0.680272
334.117340;0.680272
334.702972;0.597312
334.995789;0.298656
335.778107;0.398208
335.971619;0.282064
336.168121;0.547536
336.457520;0.265472
337.142303;0.680272
337.627777;0.464576
338.312347;0.265472
338.508331;0.630496
339.581207;0.680272
339.873596;0.464576
339.968750;0.265472
340.261108;0.298656
341.334961;0.713456
341.923065;0.945744
342.699829;0.730048
342.894073;0.215696
343.577301;0.431392
343.884369;0.547536
344.358368;0.447984
344.748718;0.398208
345.330536;0.580720
345.914520;0.597312
346.404114;0.481168
347.284119;0.564128
347.479218;0.431392
347.962189;0.547536
348.647858;0.514352
348.937805;0.381616
349.426453;0.630496
350.694092;0.829600
351.082733;0.779824
351.668152;0.613904
352.935272;0.945744
353.715729;1.045296
354.301361;0.663680
355.279694;0.829600
355.762787;0.630496
356.350586;0.530944
357.171631;0.564128
357.421478;0.564128
358.006775;0.580720
358.883911;0.414800
359.273010;0.580720
359.373322;0.182512
359.858337;0.597312
360.642334;0.597312
361.517151;0.813008
362.393066;0.846192
362.589752;0.547536
362.882080;0.265472
363.660126;0.730048
364.247742;0.663680
364.639526;0.365024
365.122589;0.464576
365.709961;0.630496
366.684021;0.564128
366.880066;0.447984
367.268250;0.464576
367.953461;0.447984
368.146973;0.315248
368.437622;0.414800
368.732178;0.348432
369.023407;0.298656
369.708557;0.398208
369.805695;0.215696
370.097229;0.414800
370.584991;0.497760
371.266205;0.696864
372.045898;0.730048
372.923157;0.530944
373.122101;0.547536
373.605652;0.514352
373.897827;0.298656
374.788971;0.647088
375.067780;0.481168
375.559265;0.497760
376.434937;0.497760
376.727020;0.481168
376.823517;0.365024
377.212708;0.331840
377.605713;0.447984
378.485443;0.431392
379.326538;0.779824
380.335175;0.630496
380.722931;0.580720
381.702301;0.696864
381.798431;0.348432
381.801331;0.049776
382.090057;0.282064
382.381561;0.265472
383.359619;0.730048
383.746124;0.447984
383.940399;0.348432
384.332733;0.464576
384.818604;0.398208
385.112549;0.315248
385.305481;0.232288
385.598267;0.248880
385.697571;0.149328
385.990723;0.298656
386.867584;0.613904
387.158539;0.282064
387.163147;0.182512
387.548309;0.447984
388.135468;0.613904
388.425476;0.232288
388.525269;0.149328
388.815735;0.232288
388.915009;0.165920
390.358551;0.796416
390.425598;0.547536
390.862976;0.580720
391.350952;0.497760
391.938232;0.182512
391.941467;0.182512
392.424194;0.464576
392.521454;0.132736
392.620667;0.232288
393.205353;0.597312
394.082886;0.564128
394.374023;0.647088
394.862274;0.530944
395.642853;0.779824
396.227905;0.564128
397.300232;0.829600
397.495239;0.447984
398.370728;0.464576
398.568756;0.597312
399.348602;0.547536
400.517487;0.962336
400.715027;0.497760
401.005463;0.431392
401.588348;0.530944
402.076508;0.514352
402.759735;0.381616
403.254791;0.564128
403.930756;0.564128
404.223572;0.331840
404.515930;0.613904
405.098175;0.530944
405.684113;0.580720
406.463898;0.829600
406.952911;0.481168
407.342896;0.414800
407.927094;0.547536
408.415680;0.514352
408.901855;0.464576
409.291595;0.398208
409.778412;0.464576
410.266815;0.547536
410.753448;0.464576
411.632874;0.447984
411.927979;0.497760
412.217987;0.514352
413.098541;0.796416
413.580933;0.547536
414.193848;0.497760
414.848389;0.514352
415.142944;0.431392
415.534271;0.530944
416.410522;0.497760
416.703613;0.431392
416.995819;0.514352
417.485321;0.497760
418.263000;0.497760
418.554749;0.481168
419.335785;0.862784
420.215393;0.481168
420.959167;0.514352
421.395111;0.481168
421.455231;0.564128
421.969238;0.315248
422.163879;0.481168
422.952606;0.481168
423.236267;0.398208
423.623993;0.497760
424.113342;0.514352
424.600159;0.514352
425.384644;0.447984
425.866333;0.481168
426.064178;0.365024
426.548767;0.514352
427.136047;0.730048
427.720734;0.597312
428.304413;0.564128
428.693817;0.381616
429.181854;0.481168
429.670929;0.481168
430.158081;0.514352
430.940613;0.447984
431.231232;0.447984
431.619354;0.514352
432.208435;0.381616
432.496887;0.481168
432.984344;0.481168
433.609650;0.381616
433.764404;0.464576
434.546173;0.497760
434.743347;0.464576
435.130676;0.431392
435.812927;0.414800
436.006775;0.414800
436.496155;0.514352
437.468872;0.497760
437.763184;0.447984
437.958313;0.497760
439.129791;0.813008
439.324036;0.447984
439.910522;0.481168
440.298981;0.597312
440.785004;0.464576
441.371643;0.613904
441.858643;0.497760
442.441467;0.481168
442.831482;0.447984
443.223511;0.447984
443.709564;0.464576
444.393311;0.414800
444.586700;0.464576
445.074005;0.514352
445.659027;0.497760
446.149170;0.547536
446.928131;0.547536
447.029175;0.082960
447.316528;0.481168
448.098541;0.447984
448.295044;0.414800
448.586090;0.414800
449.073486;0.514352
449.949982;0.514352
450.243805;0.630496
451.218506;0.613904
451.413422;0.464576
451.608368;0.331840
452.094604;0.431392
452.485779;0.414800
452.776703;0.282064
453.166809;0.431392
453.461090;0.315248
453.947205;0.464576
454.729004;0.580720
455.020874;0.497760
455.701904;0.613904
456.189484;0.497760
456.482391;0.298656
457.168243;0.464576
457.460815;0.447984
457.749390;0.348432
458.435669;0.398208
458.629303;0.365024
458.921295;0.414800
459.212067;0.331840
459.601776;0.398208
460.481201;0.414800
460.580719;0.481168
460.968353;0.431392
461.357056;0.431392
462.236481;0.481168
462.529480;0.481168
462.819397;0.431392
463.115082;0.365024
463.601532;0.447984
464.088684;0.464576
464.964844;0.514352
465.162537;0.580720
465.647705;0.481168
466.134460;0.447984
466.524506;0.464576
467.406219;0.530944
467.501434;0.149328
467.792084;0.547536
468.672607;0.514352
469.060547;0.564128
469.352051;0.481168
469.840118;0.464576
470.523743;0.398208
470.815552;0.447984
471.304016;0.680272
471.889099;0.580720
472.668365;0.365024
472.961639;0.414800
473.256683;0.481168
473.642548;0.431392
474.034363;0.431392
474.519623;0.481168
474.909821;0.381616
475.299500;0.365024
475.691742;0.431392
476.081665;0.365024
476.762329;0.663680
477.250397;0.530944
477.739319;0.464576
478.128815;0.398208
478.616547;0.447984
479.006104;0.381616
479.787903;0.481168
480.175049;0.414800
480.274200;0.431392
481.151886;0.481168
481.443970;0.414800
481.734619;0.514352
484.271149;0.978928
484.367798;0.099552
484.757172;0.763232
484.952606;0.215696
485.537750;0.530944
486.614899;0.862784
486.999847;0.597312
487.684998;0.464576
488.366791;0.514352
488.562408;0.348432
488.859955;0.580720
489.827942;0.630496
490.120117;0.630496
491.391754;0.879376
491.876892;0.862784
493.145569;0.945744
493.534485;0.497760
493.923676;0.447984
494.216980;0.481168
494.999176;0.348432
495.389038;0.597312
495.677673;0.464576
496.558105;0.497760
496.850037;0.497760
497.237518;0.547536
497.822510;0.580720
498.702637;0.597312
498.992584;0.580720
499.285034;0.282064
500.260010;0.696864
500.748260;0.796416
501.138245;0.398208
501.822601;0.530944
502.405243;0.696864
502.891907;0.497760
503.380066;0.530944
503.868225;0.464576
504.258057;0.447984
505.236694;0.730048
505.624084;0.613904
506.697876;0.730048
507.182037;0.829600
507.876495;0.696864
509.037506;0.779824
509.427094;0.447984
509.526398;0.414800
510.407837;0.481168
510.726105;0.348432
510.985321;0.564128
511.669830;0.730048
512.350769;0.647088
513.130493;0.779824
513.327087;0.215696
513.593506;0.199104
513.815369;0.298656
513.912354;0.132736
514.397827;0.414800
515.472900;0.680272
516.152771;1.128256
516.838196;0.696864
517.422424;0.580720
517.908508;0.447984
518.885742;0.630496
519.082336;0.481168
519.663940;0.647088
520.250610;0.630496
520.835510;0.580720
521.515503;0.597312
522.102417;0.663680
523.078125;0.763232
523.562927;0.663680
524.445129;0.647088
524.831360;0.630496
525.708008;0.862784
526.682922;0.597312
526.979553;0.564128
527.953064;0.680272
528.829773;0.895968
529.124512;0.630496
529.900574;0.796416
530.487854;0.630496
531.415588;0.530944
531.659302;0.647088
532.243103;0.597312
532.730103;0.447984
533.703796;0.680272
534.093079;0.647088
534.973145;0.630496
535.265320;0.613904
535.945679;0.647088
536.922485;0.613904
537.213562;0.331840
537.508362;0.481168
538.192261;0.481168
538.385803;0.564128
538.873108;0.481168
539.945801;0.630496
540.238220;0.597312
540.627197;0.447984
541.114746;0.564128
541.699829;0.597312
542.327698;0.564128
543.359741;0.647088
543.747986;0.746640
544.526184;0.796416
545.208313;0.680272
546.089661;0.796416
546.867188;0.514352
547.160767;0.497760
547.746399;0.763232
548.720703;0.663680
549.110229;0.696864
549.790955;0.696864
550.280396;0.464576
550.670471;0.431392
551.742615;0.547536
552.327393;0.779824
552.715759;0.680272
553.501465;0.713456
554.082886;0.613904
554.373474;0.298656
554.960632;0.597312
555.935608;0.547536
556.228088;0.514352
556.427246;0.447984
557.204407;0.530944
557.788818;0.530944
558.176208;0.647088
558.664124;0.514352
559.347473;0.348432
559.545898;0.514352
559.931824;0.398208
560.810486;0.663680
561.198547;0.613904
561.979309;0.746640
562.759766;0.447984
563.054993;0.481168
563.343689;0.414800
563.831665;0.547536
564.611145;0.763232
565.703613;0.696864
565.977661;0.613904
566.661316;0.696864
567.341187;0.696864
568.023804;0.680272
568.708130;0.680272
569.388550;0.696864
570.071777;0.663680
570.854919;0.813008
571.631714;0.663680
572.413696;0.813008
573.193237;0.680272
573.386597;0.414800
573.876587;0.481168
574.851074;0.613904
575.337341;0.779824
576.508240;0.813008
576.802185;0.597312
577.091370;0.331840
577.579041;0.564128
578.652466;0.663680
578.949585;0.630496
579.936035;0.630496
580.309998;0.763232
580.991333;0.647088
581.773254;0.846192
582.405518;0.514352
582.844177;0.530944
583.624817;0.813008
584.212341;0.597312
585.477722;0.846192
585.769592;0.663680
586.451477;0.663680
587.235107;0.580720
587.623291;0.630496
588.599915;0.746640
589.182312;0.829600
590.352234;0.647088
590.548340;0.414800
591.037048;0.713456
591.716553;0.696864
592.594910;0.680272
593.081726;0.680272
593.861694;0.796416
594.641663;0.746640
595.726501;0.779824
596.203735;0.813008
596.984863;0.829600
597.861328;0.846192
598.836426;0.779824
599.419312;0.730048
600.101685;0.696864
600.883789;0.414800
601.079895;0.447984
601.955566;0.746640
602.345459;0.647088
603.124268;0.763232
604.198608;0.929152
604.489319;0.431392
605.074707;0.647088
606.149475;0.796416
606.636414;0.763232
607.513306;0.796416
608.389465;0.862784
609.169373;0.796416
609.658997;0.547536
610.447388;0.763232
611.413757;0.813008
611.901550;0.663680
612.876038;0.779824
613.264954;0.564128
613.655151;0.381616
614.142090;0.530944
615.023926;0.414800
615.314209;0.447984
615.511536;0.398208
616.483337;0.713456
616.874512;0.746640
618.044434;0.730048
618.789001;0.779824
619.211487;0.763232
619.777100;0.530944
620.189941;0.530944
620.874329;0.613904
621.751831;0.945744
622.432922;0.647088
623.724976;0.730048
624.186462;0.879376
624.783325;0.713456
625.356140;0.613904
625.847351;0.447984
626.867004;0.580720
627.109192;0.514352
627.501343;0.613904
628.183105;0.597312
628.864624;0.447984
629.066772;0.497760
629.450562;0.365024
630.338013;0.597312
631.303528;0.414800
631.692444;0.464576
632.182129;0.431392
632.863098;0.713456
634.033386;0.813008
634.814880;0.730048
635.301697;0.647088
635.494690;0.414800
636.271729;0.530944
636.575439;0.365024
637.250183;0.514352
637.742371;0.779824
638.127563;0.447984
639.201050;0.696864
639.690430;0.813008
640.761719;0.713456
640.955017;0.282064
641.249756;0.597312
641.540466;0.298656
642.126892;0.547536
643.296387;0.829600
643.885498;0.862784
644.177124;0.431392
644.855591;0.514352
645.735107;0.779824
646.092163;0.514352
646.513916;0.497760
646.904724;0.414800
647.685730;0.447984
647.977173;0.414800
648.563293;0.779824
649.245422;0.630496
649.439209;0.215696
649.927979;0.530944
650.708435;0.414800
650.999756;0.530944
651.690979;0.796416
652.364624;0.663680
653.045410;0.680272
653.825439;0.779824
654.802734;0.779824
655.317444;0.680272
656.380127;0.879376
656.654419;0.447984
657.042908;0.431392
657.629883;0.630496
658.797913;1.111664
659.680176;0.663680
659.872070;0.182512
660.357849;0.713456
660.945129;0.564128
662.015808;0.862784
662.602844;0.696864
663.579529;0.846192
663.967529;0.680272
664.649963;0.663680
665.335327;0.530944
665.916260;0.730048
666.700867;0.779824
667.377869;0.597312
667.768677;0.331840
668.160645;0.481168
668.645935;0.514352
668.744690;0.149328
669.330078;0.580720
669.426086;0.066368
670.015076;0.348432
670.208435;0.481168
670.987488;0.398208
671.185547;0.481168
671.668884;0.580720
672.448730;0.763232
673.423096;0.497760
673.523804;0.431392
674.205383;0.381616
674.593079;0.481168
674.791687;0.530944
675.083435;0.282064
675.570129;0.464576
675.960815;0.447984
676.838684;0.447984
677.130371;0.447984
677.420654;0.464576
677.813354;0.481168
678.687988;0.447984
678.982788;0.464576
679.177734;0.464576
679.664001;0.464576
680.453064;0.464576
680.639954;0.464576
681.125916;0.481168
681.515930;0.464576
682.100769;0.497760
682.492798;0.447984
682.980103;0.481168
683.465698;0.464576
683.954895;0.464576
684.733948;0.447984
684.932983;0.481168
685.318359;0.464576
685.806152;0.464576
686.196716;0.464576
686.685303;0.464576
687.563110;0.464576
687.855347;0.481168
688.146301;0.447984
688.537720;0.481168
689.025940;0.464576
689.512878;0.481168
689.999023;0.464576
690.778137;0.464576
691.073792;0.481168
691.364136;0.464576
691.851013;0.464576
692.730713;0.481168
693.022705;0.464576
693.217468;0.447984
693.999939;0.464576
694.194031;0.464576
694.776367;0.481168
695.365906;0.464576
695.654785;0.464576
696.043518;0.481168
696.531921;0.481168
697.021240;0.481168
697.507812;0.464576
698.289124;0.464576
698.580566;0.497760
698.969482;0.481168
699.750610;0.481168
700.140564;0.481168
700.433044;0.481168
700.920593;0.497760
701.311340;0.447984
701.893555;0.514352
702.380981;0.481168
703.162048;0.497760
703.455383;0.481168
703.843811;0.497760
704.723328;0.497760
705.015564;0.497760
705.308838;0.514352
705.891479;0.514352
706.378723;0.497760
707.258423;0.514352
707.551025;0.481168
707.841125;0.481168
708.329346;0.497760
708.816833;0.497760
709.307251;0.481168
710.085876;0.497760
710.283691;0.497760
710.768250;0.481168
711.255859;0.497760
712.038391;0.497760
712.231323;0.497760
713.010864;0.514352
713.305420;0.497760
713.790833;0.514352
714.669128;0.514352
714.961365;0.497760
715.348755;0.497760
715.836975;0.481168
716.421265;0.497760
716.813477;0.514352
717.786438;0.481168
718.079407;0.481168
718.373779;0.497760
718.761475;0.514352
719.249817;0.481168
719.738647;0.497760
720.617004;0.497760
721.003723;0.497760
721.297180;0.514352
721.982544;0.497760
722.272461;0.514352
722.856506;0.514352
723.639404;0.514352
724.027832;0.497760
724.319763;0.514352
724.809082;0.514352
725.393799;0.514352
725.881470;0.514352
726.368530;0.514352
727.243958;0.497760
727.442749;0.514352
727.928650;0.514352
728.416870;0.530944
728.999084;0.497760
729.486572;0.514352
729.974365;0.514352
730.463318;0.497760
730.951050;0.514352
731.534058;0.530944
732.316345;0.481168
732.706787;0.530944
733.096313;0.530944
733.778748;0.530944
734.167053;0.530944
734.946594;0.530944
735.631409;0.530944
735.925903;0.514352
736.216858;0.547536
736.799805;0.530944
737.579407;0.514352
737.874207;0.497760
738.361084;0.514352
739.142334;0.514352
739.337280;0.514352
740.116089;0.547536
740.897278;0.514352
741.284851;0.514352
741.484253;0.530944
741.967529;0.530944
742.944519;0.530944
743.140198;0.530944
743.624268;0.530944
744.112183;0.530944
744.600098;0.530944
745.189697;0.530944
746.159912;0.514352
746.358276;0.530944
746.744629;0.530944
747.231812;0.514352
748.112488;0.530944
748.309082;0.530944
748.889587;0.530944
749.377747;0.547536
749.962646;0.530944
750.452026;0.514352
751.034607;0.564128
751.915710;0.530944
752.206177;0.530944
752.596558;0.547536
753.376465;0.530944
753.669189;0.547536
754.548401;0.514352
754.742981;0.530944
755.326416;0.530944
755.814209;0.530944
756.787170;0.530944
757.081909;0.530944
757.374084;0.530944
757.957275;0.530944
758.446716;0.547536
759.131287;0.564128
759.614685;0.547536
760.495972;0.547536
760.788330;0.530944
761.272644;0.547536
762.052124;0.530944
762.247559;0.530944
763.127136;0.530944
763.613342;0.547536
763.905823;0.530944
764.394165;0.530944
765.273438;0.530944
765.468689;0.530944
766.049988;0.530944
766.636047;0.530944
767.515198;0.530944
767.902222;0.530944
768.194702;0.530944
768.682983;0.530944
769.171753;0.530944
769.756775;0.547536
770.634521;0.530944
771.120300;0.530944
771.414307;0.530944
772.196289;0.530944
772.680969;0.530944
772.973694;0.530944
773.462097;0.530944
774.339172;0.530944
774.537109;0.530944
775.119019;0.530944
775.997192;0.547536
776.287415;0.530944
776.969910;0.530944
777.266174;0.530944
777.752197;0.530944
778.240417;0.530944
779.117065;0.530944
779.411377;0.530944
779.896973;0.530944
780.384888;0.530944
781.259949;0.530944
781.456238;0.530944
782.139832;0.530944
782.824585;0.547536
783.112549;0.530944
783.600403;0.514352
784.575562;0.547536
784.870178;0.547536
785.261169;0.530944
785.746460;0.530944
786.233521;0.530944
786.820374;0.530944
787.696533;0.547536
787.990173;0.547536
788.477295;0.547536
789.060120;0.580720
789.842407;0.564128
790.621338;0.580720
790.915771;0.564128
791.304871;0.564128
791.889709;0.564128
792.378174;0.547536
793.352783;0.564128
793.549561;0.547536
794.130249;0.547536
794.914246;0.564128
795.203491;0.547536
795.787720;0.547536
796.667175;0.547536
796.960632;0.564128
797.447388;0.564128
797.935608;0.547536
798.907715;0.530944
799.204407;0.530944
799.983154;0.547536
800.277039;0.547536
800.664307;0.547536
801.248474;0.564128
802.222656;0.547536
802.517212;0.547536
802.906067;0.547536
803.688354;0.547536
804.079834;0.547536
804.857422;0.547536
805.152039;0.547536
805.735352;0.547536
806.125916;0.547536
806.708557;0.530944
807.684082;0.547536
807.979370;0.530944
808.465088;0.530944
808.852966;0.547536
809.535767;0.547536
810.319580;0.547536
810.609070;0.530944
811.002014;0.547536
811.584351;0.547536
812.464417;0.547536
813.535278;0.547536
813.925110;0.530944
814.215698;0.547536
814.607300;0.547536
814.898499;0.564128
815.385864;0.547536
817.047485;0.564128
817.435791;0.564128
817.823914;0.580720
818.118530;0.564128
818.507874;0.564128
818.798645;0.564128
819.385193;0.564128
819.968201;0.564128
820.847168;0.564128
821.045898;0.564128
821.723755;0.564128
822.210754;0.580720
822.993225;0.564128
823.771362;0.564128
824.355774;0.580720
824.551514;0.580720
825.041260;0.564128
825.624084;0.564128
826.501465;0.564128
826.793823;0.564128
827.575745;0.564128
827.866760;0.564128
828.551575;0.564128
829.037170;0.564128
829.915100;0.564128
830.205872;0.564128
830.696289;0.547536
831.570740;0.564128
831.864075;0.564128
832.742798;0.547536
833.133118;0.547536
833.523132;0.564128
834.011292;0.547536
834.790771;0.564128
835.272827;0.547536
835.760132;0.580720
836.638550;0.547536
836.929688;0.564128
837.419189;0.547536
838.491333;0.547536
838.977356;0.547536
839.563416;0.547536
839.856750;0.530944
840.147400;0.547536
840.929077;0.547536
841.707275;0.564128
842.097290;0.547536
842.491699;0.547536
842.877441;0.564128
843.853455;0.547536
844.154541;0.580720
844.632507;0.564128
845.523499;0.580720
845.711182;0.564128
846.582886;0.580720
846.877014;0.580720
847.755249;0.547536
848.046997;0.564128
848.926147;0.564128
849.219482;0.580720
849.702759;0.580720
850.289612;0.580720
850.872559;0.547536
851.457458;0.580720
852.434692;0.580720
852.920898;0.564128
853.118408;0.564128
853.898315;0.564128
854.286987;0.580720
854.870117;0.597312
855.553162;0.597312
856.137878;0.597312
856.724731;0.597312
857.506653;0.597312
857.897034;0.580720
858.477722;0.564128
858.967163;0.564128
859.843323;0.564128
860.138000;0.580720
861.016968;0.564128
861.306702;0.580720
861.892029;0.564128
862.768372;0.580720
863.060547;0.580720
863.648010;0.580720
864.230469;0.580720
864.817383;0.580720
865.305542;0.580720
866.277893;0.580720
866.475647;0.564128
867.255310;0.580720
867.742432;0.580720
868.229858;0.580720
868.814880;0.580720
869.595215;0.564128
869.984924;0.564128
870.473450;0.564128
871.056091;0.564128
871.934631;0.580720
872.228210;0.547536
872.810425;0.564128
873.496643;0.564128
874.371033;0.564128
874.663574;0.547536
875.053284;0.564128
875.542786;0.564128
876.127563;0.564128
877.003052;0.564128
877.297546;0.564128
877.881104;0.564128
878.662415;0.564128
878.955139;0.547536
879.540710;0.564128
880.320435;0.580720
880.611328;0.564128
881.197449;0.564128
881.979614;0.580720
882.365784;0.564128
883.341187;0.580720
883.536987;0.580720
884.122803;0.580720
885.001160;0.564128
885.292114;0.580720
886.172729;0.580720
886.464478;0.564128
886.948181;0.564128
887.535217;0.564128
888.413696;0.547536
888.703186;0.547536
889.191101;0.564128
889.775757;0.547536
890.654480;0.547536
891.045410;0.564128
891.433228;0.547536
892.217773;0.564128
892.606995;0.564128
893.090881;0.547536
893.972473;0.564128
894.265259;0.564128
894.748657;0.547536
895.335327;0.564128
895.918335;0.564128
896.602966;0.564128
897.384094;0.564128
897.678894;0.580720
898.161194;0.564128
898.747742;0.580720
899.624939;0.580720
899.920349;0.580720
900.501770;0.580720
901.086121;0.564128
901.672974;0.580720
902.551270;0.580720
903.037659;0.564128
903.328796;0.564128
904.306152;0.580720
904.498474;0.564128
905.280334;0.564128
905.963989;0.580720
906.257629;0.564128
906.742249;0.580720
907.719849;0.580720
908.011963;0.580720
908.496460;0.580720
909.083130;0.580720
909.666504;0.564128
910.544189;0.580720
910.836182;0.564128
911.713684;0.580720
912.006104;0.580720
912.591125;0.580720
913.468811;0.580720
913.666809;0.580720
914.346130;0.597312
915.323547;0.580720
915.713989;0.580720
916.005737;0.580720
916.588684;0.580720
917.176208;0.580720
917.760803;0.580720
918.343689;0.580720
919.318726;0.564128
919.514404;0.564128
920.586426;0.580720
920.879395;0.564128
921.173340;0.564128
921.756287;0.564128
922.343323;0.564128
922.926392;0.564128
923.511719;0.564128
924.001282;0.547536
924.584961;0.564128
925.168823;0.580720
926.144470;0.564128
926.245728;0.547536
926.826782;0.564128
927.608887;0.564128
927.996399;0.564128
928.581360;0.564128
929.069702;0.547536
929.656494;0.564128
930.449951;0.580720
931.216736;0.564128
931.604004;0.564128
931.898438;0.580720
932.776245;0.580720
933.165405;0.597312
933.946167;0.597312
934.334106;0.580720
934.919067;0.547536
935.309021;0.464576
935.894287;0.564128
936.869141;0.597312
937.068359;0.580720
937.746582;0.647088
938.236572;0.530944
938.819763;0.564128
939.599182;0.514352
939.891479;0.547536
940.382446;0.547536
941.164246;0.580720
941.550354;0.580720
942.233582;0.613904
942.920410;0.580720
943.402344;0.613904
943.987061;0.580720
944.963928;0.580720
945.351746;0.564128
945.646606;0.564128
946.327148;0.547536
946.814331;0.564128
947.303955;0.547536
948.280823;0.547536
948.473938;0.580720
949.057617;0.564128
949.547058;0.564128
950.325439;0.547536
950.734070;0.547536
951.203613;0.564128
951.787598;0.564128
952.764648;0.564128
953.058472;0.564128
953.934204;0.564128
954.322266;0.580720
954.616394;0.564128
955.202271;0.580720
956.175720;0.564128
956.372498;0.564128
957.151855;0.547536
957.443970;0.564128
958.027100;0.564128
958.612061;0.547536
959.196899;0.564128
959.686340;0.547536
960.269409;0.564128
961.051636;0.547536
961.734680;0.580720
962.125244;0.564128
962.512939;0.580720
963.099854;0.580720
963.682861;0.580720
964.463989;0.580720
964.854004;0.580720
965.437683;0.580720
966.024292;0.580720
966.609375;0.580720
967.389709;0.580720
967.780334;0.564128
968.362305;0.580720
968.947205;0.580720
969.828003;0.580720
970.120972;0.580720
970.996094;0.580720
971.289001;0.580720
971.872925;0.597312
972.653442;0.580720
973.042725;0.597312
973.824829;0.564128
974.213745;0.580720
974.797974;0.580720
975.285583;0.564128
976.263855;0.580720
976.458313;0.597312
977.040649;0.564128
978.016846;0.580720
978.503418;0.580720
978.798706;0.580720
979.772156;0.580720
980.161743;0.580720
980.552002;0.597312
981.526123;0.597312
981.821411;0.613904
982.402405;0.597312
982.987793;0.580720
983.964539;0.597312
984.162231;0.580720
985.034973;0.580720
985.327576;0.564128
985.817932;0.564128
986.400879;0.580720
986.987244;0.564128
987.570007;0.547536
988.059753;0.564128
988.937378;0.547536
989.230530;0.597312
989.813293;0.564128
990.499329;0.580720
990.983154;0.564128
991.568176;0.580720
992.348938;0.580720
992.642273;0.564128
993.523010;0.564128
993.911438;0.564128
994.395691;0.564128
994.980713;0.564128
995.761169;0.547536
996.055298;0.564128
996.637695;0.564128
997.222900;0.564128
997.712524;0.564128
998.592041;0.580720
998.880249;0.580720
999.856750;0.580720
1000.148132;0.580720
1000.635254;0.580720
1001.612000;0.580720
1001.809875;0.580720
1002.783325;0.580720
1003.267761;0.564128
1003.560852;0.580720
1004.343628;0.564128
1004.730347;0.580720
1005.219910;0.547536
1005.803101;0.564128
1006.684204;0.564128
1006.974121;0.580720
1007.657532;0.547536
1008.047546;0.580720
1008.630432;0.564128
1009.217468;0.580720
1010.192383;0.597312
1010.486328;0.580720
1010.972595;0.597312
1011.945435;0.580720
1012.237976;0.580720
1013.213074;0.597312
1013.604736;0.580720
1013.896667;0.580720
1014.873413;0.597312
1015.359375;0.564128
1015.651978;0.564128
1016.531128;0.564128
1016.822083;0.564128
1017.308716;0.547536
1017.994934;0.564128
1018.478699;0.547536
1019.166016;0.564128
1019.552856;0.564128
1020.135559;0.564128
1020.919434;0.580720
1021.698242;0.564128
1021.990112;0.580720
1022.476196;0.580720
1023.060608;0.580720
1023.939941;0.580720
1024.234863;0.564128
1024.720215;0.597312
1025.694214;0.564128
1025.989624;0.580720
1026.866333;0.564128
1027.448608;0.580720
1027.744995;0.564128
1028.231445;0.580720
1028.814087;0.580720
1029.595215;0.580720
1030.278809;0.580720
1030.670288;0.580720
1031.056641;0.564128
1031.643677;0.597312
1032.520874;0.580720
1032.811768;0.580720
1033.397339;0.580720
1034.275391;0.597312
1034.567749;0.580720
1035.541504;0.564128
1035.835449;0.597312
1036.323120;0.580720
1036.907959;0.580720
1037.783447;0.564128
1038.078003;0.580720
1038.860229;0.564128
1039.639893;0.580720
1039.831543;0.580720
1040.416626;0.580720
1041.293945;0.580720
1041.490601;0.547536
1042.076172;0.597312
1042.658447;0.580720
1043.730957;0.564128
1043.930664;0.564128
1044.805664;0.564128
1045.098511;0.547536
1045.486206;0.547536
1046.071289;0.547536
1046.952393;0.564128
1047.340454;0.564128
1047.728760;0.580720
1048.705688;0.597312
1049.096313;0.580720
1049.483765;0.597312
1050.365356;0.597312
1050.751587;0.597312
1051.727417;0.580720
1052.021118;0.580720
1052.411011;0.580720
1053.388306;0.564128
1053.582275;0.580720
1054.164673;0.564128
1055.141235;0.564128
1055.437378;0.564128
1055.823364;0.564128
1056.408325;0.580720
1057.383057;0.597312
1057.678345;0.580720
1058.554199;0.580720
1058.943359;0.580720
1059.332275;0.580720
1059.919189;0.580720
1060.796631;0.580720
1061.086670;0.580720
1061.673462;0.564128
1062.551025;0.580720
1062.841431;0.564128
1063.722046;0.564128
1064.014893;0.564128
1064.499146;0.564128
1065.085693;0.564128
1065.669678;0.580720
1066.355957;0.580720
1067.137451;0.613904
1067.523315;0.630496
1068.106934;0.613904
1068.692261;0.613904
1069.474854;0.613904
1069.865479;0.580720
1070.452148;0.580720
1071.134155;0.580720
1071.618774;0.580720
1072.401611;0.564128
1072.786499;0.547536
1073.371460;0.580720
1073.958618;0.597312
1074.931641;0.580720
1075.130981;0.597312
1075.713623;0.597312
1076.589111;0.580720
1076.882324;0.597312
1077.860474;0.597312
1078.054199;0.580720
1078.637451;0.580720
1079.223877;0.564128
1080.099243;0.564128
1080.296143;0.547536
1081.367188;0.564128
1081.659302;0.564128
1082.049561;0.547536
1084.196533;0.862784
1084.683472;0.862784
1084.781128;0.116144
1085.661743;0.813008
1086.146484;0.580720
1086.339355;0.215696
1086.634399;0.282064
1087.509277;0.613904
1087.803711;0.547536
1088.680908;0.547536
1088.976929;0.564128
1089.461548;0.564128
1090.340454;0.580720
1090.727661;0.580720
1091.314575;0.547536
1092.094116;0.530944
1092.579346;0.580720
1092.873901;0.597312
1093.458984;0.580720
1094.042114;0.597312
1094.630005;0.580720
1095.602539;0.613904
1095.894409;0.564128
1096.479614;0.597312
1097.064453;0.580720
1098.039551;0.580720
1098.335327;0.580720
1098.722412;0.564128
1099.408936;0.580720
1099.892700;0.564128
1100.477173;0.580720
1101.358643;0.580720
1101.747803;0.580720
1102.232422;0.580720
1102.817139;0.580720
1103.402100;0.580720
1103.989014;0.564128
1104.574097;0.580720
1105.061646;0.547536
1105.645264;0.564128
1106.525024;0.530944
1106.916504;0.564128
1107.302979;0.564128
1108.180420;0.580720
1108.472412;0.580720
1109.351685;0.564128
1109.645508;0.564128
1110.425781;0.580720
1110.721313;0.564128
1111.692505;0.564128
1111.984619;0.547536
1112.374268;0.547536
1113.350220;0.564128
1113.737915;0.564128
1114.127808;0.564128
1114.907349;0.564128
1115.201904;0.580720
1115.883423;0.597312
1116.369507;0.564128
1117.348511;0.597312
1117.739624;0.564128
1118.125977;0.580720
1118.813843;0.580720
1119.568115;0.564128
1119.880371;0.564128
1120.677490;0.580720
1121.052124;0.647088
1121.635132;0.530944
1122.770508;0.564128
1122.904907;0.547536
1123.686401;0.564128
1123.879517;0.564128
1124.462891;0.564128
1124.950073;0.564128
1125.926880;0.547536
1126.222656;0.564128
1126.607788;0.530944
1127.195068;0.547536
1127.780029;0.580720
1128.560059;0.564128
1128.852783;0.564128
1129.729004;0.580720
1130.020508;0.564128
1130.606567;0.580720
1131.389893;0.580720
1131.775146;0.613904
1132.657471;0.580720
1132.948853;0.597312
1134.017700;0.613904
1134.312256;0.597312
1134.797974;0.580720
1135.383423;0.580720
1135.872803;0.547536
1136.455933;0.564128
1137.432983;0.547536
1137.724487;0.547536
1138.114746;0.580720
1138.699829;0.564128
1139.285400;0.580720
1140.065552;0.597312
1140.845581;0.613904
1141.234741;0.580720
1141.623779;0.564128
1142.305298;0.613904
1143.087769;0.580720
1143.378540;0.564128
1143.964478;0.564128
1144.746826;0.564128
1145.525269;0.564128
1145.720093;0.547536
1146.404541;0.530944
1146.791016;0.564128
1147.279907;0.564128
1148.255249;0.580720
1148.545410;0.597312
1149.130371;0.597312
1149.727539;0.613904
1150.302612;0.630496
1150.887695;0.597312
1151.668579;0.597312
1152.153442;0.597312
1152.738159;0.597312
1153.325073;0.580720
1153.812744;0.530944
1154.396362;0.564128
1155.468872;0.564128
1155.762329;0.547536
1156.055054;0.564128
1156.638184;0.564128
1157.518555;0.547536
1157.907349;0.547536
1158.295410;0.580720
1158.882812;0.580720
1159.465820;0.564128
1160.050659;0.580720
1161.026978;0.580720
1161.322266;0.597312
1161.805664;0.580720
1162.686401;0.564128
1162.980225;0.564128
1163.953003;0.580720
1164.245117;0.547536
1164.633301;0.547536
1165.220459;0.564128
1166.098755;0.564128
1166.392334;0.564128
1166.876099;0.547536
1167.460693;0.564128
1168.338135;0.497760
1168.632690;0.580720
1169.510986;0.580720
1169.708496;0.564128
1170.190796;0.547536
1170.974609;0.580720
1171.656250;0.564128
1172.142578;0.580720
1172.531006;0.580720
1173.215454;0.630496
1173.997681;0.597312
1174.383423;0.630496
1175.264893;0.597312
1175.558228;0.580720
1176.138428;0.564128
1176.920776;0.547536
1177.211060;0.547536
1178.091553;0.564128
1178.578491;0.547536
1178.869385;0.580720
1179.941772;0.564128
1180.234009;0.530944
1180.624390;0.680272
1181.210327;0.580720
1182.183350;0.613904
1182.573486;0.696864
1183.356079;0.613904
1184.038696;0.862784
1184.133667;0.033184
1184.622925;0.564128
1185.499878;0.580720
1186.084595;0.564128
1186.376099;0.564128
1187.255005;0.564128
1187.450684;0.580720
1188.426758;0.597312
1188.816650;0.564128
1189.204468;0.580720
1189.790527;0.547536
1190.573120;0.564128
1190.861206;0.564128
1191.838501;0.564128
1192.131226;0.580720
1192.616699;0.547536
1193.593384;0.580720
1193.886353;0.547536
1194.274048;0.580720
1194.860718;0.564128
1195.451782;0.564128
1196.321289;0.564128
1196.614380;0.580720
1197.492920;0.564128
1197.981323;0.580720
1198.274048;0.564128
1199.153564;0.564128
1199.441528;0.530944
1199.928955;0.547536
1200.906860;0.564128
1201.198486;0.580720
1201.686035;0.564128
1202.565308;0.580720
1202.854004;0.580720
1203.438843;0.564128
1203.928833;0.564128
1204.612427;0.597312
1205.098633;0.580720
1206.072632;0.613904
1206.853638;0.580720
1207.241943;0.547536
1207.634033;0.597312
1208.021606;0.580720
1208.608643;0.564128
1209.195190;0.547536
1209.974243;0.564128
1210.362061;0.580720
1210.851074;0.564128
1211.531494;0.564128
1212.020752;0.580720
1212.701904;0.613904
1213.189209;0.564128
1214.071045;0.530944
1214.363525;0.564128
1215.139526;0.530944
1215.335083;0.547536
1215.921997;0.564128
1216.799194;0.530944
1217.284668;0.547536
1217.578735;0.547536
1218.457153;0.580720
1219.039795;0.530944
1219.237671;0.547536
1220.114868;0.547536
1220.409302;0.580720
1220.892700;0.580720
1221.479614;0.580720
1222.452759;0.580720
1222.648682;0.564128
1223.429199;0.597312
1223.816772;0.580720
1224.403564;0.580720
1225.283813;0.580720
1225.576294;0.580720
1226.158813;0.580720
1226.743896;0.580720
1227.326904;0.580720
1227.913940;0.580720
1228.886841;0.564128
1229.182129;0.580720
1229.667725;0.564128
1230.156494;0.547536
1230.740723;0.547536
1231.621826;0.564128
1231.815674;0.547536
1232.397705;0.564128
1233.183228;0.547536
1233.489868;0.547536
1234.348877;0.597312
1234.739136;0.613904
1235.227417;0.564128
1236.218384;0.746640
1236.697632;0.680272
1237.663208;0.530944
1237.862427;0.547536
1238.250000;0.514352
1239.032349;0.530944
1239.808960;0.580720
1240.107300;0.365024
1240.296631;0.365024
1240.588989;0.414800
1241.077026;0.514352
1241.368774;0.331840
1241.954102;0.182512
1242.149536;0.248880
1242.346069;0.348432
1242.444702;0.215696
1243.320190;0.481168
1243.613647;0.580720
1244.001343;0.481168
1244.780762;0.530944
1245.074219;0.564128
1245.656860;0.530944
1246.145020;0.530944
1246.732178;0.597312
1248.002930;0.879376
1248.487671;0.879376
1249.364746;0.846192
1250.629150;0.879376
1250.631348;0.199104
1251.019653;0.414800
1251.606812;0.779824
1251.701904;0.066368
1252.481567;0.746640
1253.262695;0.547536
1253.264893;0.447984
1254.046143;0.514352
1254.530273;0.713456
1255.506348;0.696864
1255.506836;0.033184
1255.507690;0.049776
1255.628662;0.049776
1255.699707;0.049776
1255.895386;0.199104
1255.896118;0.033184
1255.896362;0.049776
1255.997437;0.049776
1256.001221;0.033184
1256.091309;0.116144
1256.092285;0.049776
1256.189331;0.049776
1256.190063;0.033184
1256.286377;0.165920
1256.383057;0.049776
1256.383789;0.033184
1256.482544;0.099552
1256.577393;0.199104
1257.361328;0.580720
1257.749634;0.331840
1257.847290;0.215696
1258.040405;0.365024
1258.237183;0.232288
1258.624878;0.348432
1258.724854;0.132736
1259.505005;0.398208
1259.703003;0.348432
1259.703369;0.033184
1259.892944;0.365024
1260.773926;0.514352
1260.871094;0.282064
1260.967651;0.049776
1261.356323;0.597312
1262.142944;0.564128
1262.428101;0.547536
1262.915771;0.514352
1263.504395;0.547536
1264.378784;0.514352
1264.476196;0.116144
1264.675293;0.514352
1265.645142;0.547536
1266.036865;0.630496
1266.327881;0.464576
1266.425903;0.082960
1266.622681;0.232288
1266.817749;0.215696
1267.010132;0.165920
1267.209106;0.199104
1267.500854;0.331840
1268.279785;0.514352
1268.962402;0.879376
1269.253296;0.348432
1269.938110;0.481168
1270.328003;0.514352
1271.210449;0.713456
1271.593140;0.613904
1272.275879;0.647088
1272.960693;0.580720
1273.349854;0.530944
1273.837402;0.514352
1274.715210;0.613904
1275.007812;0.547536
1275.298462;0.298656
1275.695679;0.315248
1276.665894;0.680272
1277.055176;0.547536
1277.444580;0.580720
1278.028076;0.547536
1278.812622;0.597312
1279.103149;0.547536
1279.882568;0.564128
1280.271484;0.514352
1280.762207;0.580720
1281.635376;0.530944
1281.930176;0.597312
1282.512939;0.530944
1283.002441;0.580720
1283.784546;0.514352
1284.170288;0.564128
1284.855591;0.514352
1285.145386;0.530944
1286.025391;0.597312
1286.316895;0.580720
1286.900757;0.547536
1287.781006;0.547536
1287.977905;0.514352
1288.850342;0.530944
1289.050415;0.580720
1289.633301;0.597312
1290.510742;0.647088
1290.997314;0.696864
1291.778320;0.746640
1292.848755;0.796416
1293.147095;0.597312
1294.020630;0.647088
1294.411377;0.613904
1294.899170;0.514352
1295.287720;0.365024
1296.067261;0.398208
1296.358032;0.547536
1296.846558;0.597312
1297.821899;0.580720
1298.020264;0.547536
1298.992798;0.613904
1299.286133;0.530944
1299.673828;0.580720
1300.260254;0.580720
1301.136230;0.431392
1301.528687;0.564128
1301.819580;0.547536
1302.793213;0.564128
1303.087891;0.564128
1303.478516;0.547536
1304.353271;0.564128
1304.747314;0.696864
1305.622559;0.647088
1306.108643;0.680272
1306.894653;0.647088
1307.279175;0.530944
1308.060913;0.597312
1308.643311;0.746640
1309.133179;0.564128
1309.818115;0.530944
1310.302002;0.580720
1310.886353;0.613904
1311.767822;0.597312
1312.158936;0.597312
1313.130005;0.597312
1313.423950;0.597312
1313.715820;0.398208
1314.404541;0.680272
1314.981689;0.597312
1315.766113;0.713456
1316.544189;0.447984
1316.833984;0.464576
1317.028809;0.149328
1317.032227;0.149328
1317.033813;0.082960
1317.127686;0.132736
1317.809814;0.597312
1318.703369;0.547536
1318.980835;0.613904
1319.465454;0.580720
1319.772461;0.232288
1319.953857;0.232288
1319.954346;0.033184
1320.149048;0.182512
1321.223145;0.547536
1322.100342;0.530944
1322.587036;0.530944
1322.879272;0.597312
1323.268555;0.331840
1324.245361;0.580720
1324.635742;0.663680
1325.515259;0.613904
1326.096558;0.978928
1326.681885;0.613904
1327.558960;0.580720
1327.755615;0.514352
1328.340698;0.597312
1328.923584;0.497760
1329.313843;0.398208
1329.801025;0.547536
1330.777466;0.547536
1331.168091;0.779824
1331.752930;0.613904
1332.336060;0.564128
1333.312500;0.580720
1333.603760;0.680272
1334.580444;0.613904
1334.971436;0.746640
1335.945435;0.663680
1336.237061;0.647088
1336.918701;0.630496
1337.503906;0.564128
1338.385010;0.580720
1338.674561;0.597312
1339.551270;0.597312
1339.844482;0.597312
1340.429565;0.580720
1341.015747;0.597312
1341.989502;0.613904
1342.190430;0.597312
1342.866333;0.613904
1343.745850;0.630496
1344.133789;0.630496
1345.011841;0.597312
1345.306030;0.597312
1345.888916;0.580720
1346.768555;0.580720
1347.158447;0.580720
1347.644043;0.580720
1348.521484;0.580720
1348.814575;0.580720
1349.692871;0.580720
1350.181763;0.597312
1350.571167;0.613904
1351.155396;0.613904
1351.836548;0.597312
1352.620605;0.613904
1353.400146;0.613904
1353.594849;0.613904
1354.275757;0.597312
1355.154663;0.597312
1355.736572;0.580720
1356.029297;0.580720
1356.614014;0.580720
1357.199463;0.580720
1357.784790;0.597312
1358.663574;0.597312
1358.954346;0.597312
1359.541138;0.597312
1360.124878;0.613904
1361.103027;0.613904
1361.396118;0.597312
1362.173828;0.564128
1362.562500;0.613904
1363.147583;0.613904
1364.125610;0.597312
1364.320557;0.580720
1364.902222;0.580720
1365.878662;0.580720
1366.172974;0.547536
1366.658813;0.647088
1367.729858;0.613904
1368.218750;0.746640
1368.704834;0.630496
1369.387451;0.398208
1369.779053;0.696864
1370.168823;0.398208
1370.559204;0.414800
1371.532227;0.597312
1371.727783;0.564128
1372.702881;0.514352
1372.898682;0.580720
1373.384399;0.547536
1373.971436;0.547536
1374.850586;0.580720
1375.140137;0.613904
1376.117310;0.613904
1376.411743;0.630496
1376.994385;0.597312
1377.579102;0.613904
1378.454590;0.597312
1378.846069;0.597312
1379.429565;0.630496
1380.407104;0.564128
1380.797119;0.630496
1381.676270;0.647088
1381.964600;0.663680
1382.647461;0.663680
1383.431519;0.647088
1383.914673;0.630496
1384.501831;0.647088
1385.282471;0.613904
1385.767090;0.613904
1386.352173;0.564128
1387.232666;0.580720
1387.814697;0.547536
1388.013794;0.564128
1388.986816;0.580720
1389.378174;0.564128
1389.764771;0.564128
1390.645142;0.564128
1391.131836;0.597312
1391.422974;0.547536
1392.203613;0.564128
1392.594238;0.597312
1393.177612;0.597312
1394.154541;0.613904
1394.446167;0.597312
1395.229370;0.597312
1395.616089;0.580720
1396.396973;0.597312
1396.785278;0.564128
1397.664917;0.564128
1398.054810;0.580720
1398.834961;0.580720
1399.129150;0.564128
1399.613037;0.597312
1400.294922;0.613904
1401.078369;0.597312
1401.466919;0.597312
1402.049805;0.580720
1402.928589;0.564128
1403.220581;0.580720
1404.195557;0.597312
1404.394165;0.547536
1404.879517;0.564128
1405.462646;0.564128
1406.047729;0.564128
1406.927856;0.564128
1407.317627;0.564128
1407.705200;0.580720
1408.292236;0.580720
1408.682251;0.398208
1409.562012;0.630496
1410.240112;0.779824
1410.532959;0.398208
1410.827393;0.298656
1410.924194;0.099552
1411.118286;0.182512
1411.214966;0.165920
1412.094971;0.431392
1412.290649;0.564128
1412.482666;0.248880
1412.677612;0.149328
1412.872803;0.199104
1413.262695;0.365024
1413.848999;0.613904
1415.705078;0.912560
1416.577637;0.912560
1417.459229;0.846192
1418.627808;1.095072
1419.600220;1.260992
1420.383057;0.580720
1420.772949;0.613904
1421.357300;0.597312
1422.236084;0.580720
1422.527832;0.597312
1423.406616;0.564128
1423.695557;0.564128
1424.282959;0.564128
1424.769775;0.564128
1425.354858;0.580720
1426.234619;0.580720
1426.525391;0.580720
1427.401001;0.580720
1427.695312;0.580720
1428.278564;0.580720
1428.865967;0.597312
1429.450806;0.597312
1430.132568;0.597312
1431.011841;0.597312
1431.303711;0.613904
1432.082886;0.597312
1432.473145;0.613904
1433.155273;0.613904
1434.033813;0.613904
1434.327393;0.613904
1435.204712;0.597312
1435.590454;0.613904
1436.177490;0.597312
1436.760498;0.597312
1437.345459;0.597312
1437.932739;0.597312
1438.613281;0.613904
1439.590088;0.597312
1439.980469;0.597312
1440.368164;0.597312
1440.955078;0.613904
1441.635986;0.613904
1442.613159;0.613904
1442.808105;0.613904
1443.589233;0.597312
1444.076050;0.597312
1445.051025;0.597312
1445.344849;0.613904
1445.829712;0.597312
1446.706177;0.597312
1447.000977;0.597312
1447.685181;0.613904
1448.561035;0.597312
1448.952759;0.597312
1449.829468;0.613904
1450.120728;0.597312
1450.705322;0.613904
1451.585327;0.613904
1451.873413;0.597312
1452.460327;0.613904
1453.340576;0.597312
1453.725830;0.580720
1454.310791;0.597312
1455.190063;0.597312
1455.483154;0.597312
1456.068481;0.613904
1456.650879;0.530944
1457.530396;0.530944
1457.921021;0.481168
1458.213257;0.613904
1458.797119;0.564128
1459.480713;0.613904
1459.970581;0.580720
1460.843872;0.547536
1461.136475;0.564128
1461.818970;0.630496
1462.306030;0.497760
1462.795532;0.564128
1463.284302;0.481168
1464.354980;0.647088
1464.454590;0.315248
1464.843018;0.564128
1465.328613;0.447984
1466.112793;0.647088
1466.503418;0.613904
1467.183350;0.663680
1468.159058;0.580720
1468.644043;0.497760
1468.936890;0.663680
1469.521484;0.564128
1470.203613;0.680272
1470.593628;0.381616
1471.572388;0.813008
1472.056152;0.663680
1472.643311;0.613904
1473.226318;0.564128
1473.813354;0.564128
1474.692505;0.564128
1474.985962;0.580720
1475.469116;0.547536
1476.446167;0.597312
1476.640137;0.530944
1477.223755;0.630496
1478.199341;0.630496
1478.491821;0.613904
1479.468750;0.597312
1479.663452;0.597312
1480.539429;0.597312
1480.833496;0.597312
1481.418457;0.580720
1482.003418;0.564128
1482.977417;0.564128
1483.270508;0.547536
1483.758423;0.647088
1484.341431;0.547536
1484.927734;0.613904
1485.807251;0.547536
1486.098511;0.481168
1486.583984;0.613904
1487.269043;0.713456
1487.854004;0.597312
1488.441406;0.315248
1488.633911;0.464576
1489.510986;0.862784
1490.583862;0.630496
1490.781006;0.597312
1491.361572;0.580720
1492.243530;0.597312
1492.531616;0.580720
1493.118896;0.580720
1493.996948;0.580720
1494.677246;0.597312
1495.261597;0.580720
1495.459106;0.613904
1496.141113;0.613904
1497.020142;0.613904
1497.602173;0.597312
1497.896118;0.613904
1498.481079;0.597312
1499.357300;0.597312
1499.845825;0.597312
1500.624146;0.597312
1500.918701;0.597312
1501.515381;0.564128
1502.536499;0.713456
1502.869263;0.564128
1503.355103;0.613904
1504.135742;0.464576
1504.721924;0.647088
1505.109375;0.613904
1506.089844;0.597312
1506.378540;0.580720
1506.866577;0.580720
1507.547485;0.647088
1508.425415;0.580720
1508.718750;0.597312
1509.315796;0.580720
1510.384155;1.111664
1511.255615;0.730048
1511.739380;0.630496
1512.421875;0.630496
1513.303223;0.613904
1513.591919;0.580720
1514.570923;0.613904
1514.959473;0.597312
1515.349731;0.613904
1516.419189;0.580720
1516.811523;0.514352
1517.395142;0.547536
1517.789917;0.530944
1518.078735;0.564128
1519.052002;0.879376
1519.637451;0.613904
1520.614502;0.630496
1521.004150;0.746640
1521.491333;0.464576
1522.466431;0.779824
1522.856812;0.647088
1523.734131;0.696864
1524.124878;0.530944
1524.999512;0.597312
1525.684692;0.547536
1526.072021;0.514352
1526.464722;0.730048
1527.437012;0.696864
1527.827271;0.647088
1528.997681;0.647088
1529.487793;0.796416
1530.167114;0.846192
1531.240112;0.680272
1531.533813;0.564128
1531.924194;0.580720
1532.607422;0.613904
1533.095215;0.497760
1534.067261;0.696864
1534.459106;0.680272
1535.726807;0.912560
1536.021729;0.680272
1537.287354;0.796416
1537.579102;0.514352
1538.455322;1.061888
1539.432861;0.630496
1539.824341;0.630496
1540.309448;0.630496
1541.283447;0.613904
1541.577026;0.613904
1542.551636;0.630496
1542.846558;0.630496
1543.430176;0.630496
1544.109985;0.630496
1544.697144;0.630496
1545.282104;0.613904
1545.962524;0.597312
1546.547363;0.597312
1547.132446;0.597312
1548.013916;0.580720
1548.302490;0.597312
1548.889526;0.564128
1549.377563;0.414800
1549.864624;0.613904
1550.645508;0.481168
1550.940063;0.613904
1551.620117;0.680272
1552.302246;0.647088
1552.887085;0.580720
1553.764526;0.696864
1554.057129;0.481168
1554.835083;0.763232
1555.422729;0.613904
1556.396484;0.597312
1556.594604;0.580720
1557.177856;0.580720
1557.760986;0.580720
1558.738281;0.597312
1559.126221;0.597312
1559.614746;0.613904
1560.490723;0.597312
1560.783569;0.613904
1561.855347;0.630496
1562.440674;0.613904
1562.929443;0.597312
1563.318237;0.647088
1564.099487;0.647088
1564.879883;0.630496
1565.369385;0.796416
1566.049927;0.647088
1566.929565;0.647088
1567.317383;0.647088
1568.194458;0.613904
1568.485718;0.580720
1569.168335;0.613904
1569.754272;0.647088
1570.534302;0.530944
1570.924072;0.613904
1571.898560;1.012112
1572.775879;0.630496
1573.263184;0.663680
1574.240723;0.630496
1574.530762;0.647088
1575.509277;0.613904
1576.090820;0.962336
1576.772949;0.647088
1577.264160;0.564128
1577.845581;0.547536
1578.824585;0.713456
1579.213135;0.647088
1579.893677;0.680272
1580.675415;0.763232
1581.649658;0.680272
1582.135498;0.796416
1582.722778;0.613904
1583.405273;0.680272
1583.988159;0.597312
1584.871216;0.497760
1585.355103;0.829600
1586.427612;0.730048
1586.622803;0.530944
1587.404907;0.514352
1587.695801;0.597312
1588.573364;0.647088
1589.058472;0.663680
1590.036133;0.663680
1590.523804;0.680272
1591.008179;0.613904
1591.593628;0.630496
1592.568726;0.663680
1592.861572;0.597312
1593.738892;0.713456
1594.325317;0.746640
1595.205322;0.680272
1596.080322;1.061888
1597.252319;0.779824
1597.639038;0.763232
1598.710815;0.663680
1599.008057;0.696864
1599.687866;0.713456
1600.855713;0.746640
1601.345459;0.647088
1601.733398;0.597312
1602.612061;0.613904
1603.003052;0.680272
1604.173096;0.796416
1604.755859;0.829600
1605.634644;0.696864
1605.925903;0.414800
1606.608765;0.829600
1607.778931;0.730048
1608.075562;0.680272
1608.658081;0.730048
1609.729126;0.696864
1610.219971;0.547536
1611.194336;0.713456
1611.875854;0.978928
1612.755127;0.829600
1613.534546;0.895968
1614.604248;0.730048
1614.996094;0.763232
1615.873413;0.713456
1616.265869;0.647088
1616.944092;0.680272
1617.727783;0.796416
1618.503662;0.779824
1619.188232;0.680272
1619.868652;0.680272
1620.650513;0.813008
1621.333984;0.713456
1622.013794;0.663680
1623.184448;0.829600
1623.866699;0.978928
1624.551514;0.746640
1625.426514;0.829600
1626.307251;0.929152
1627.085815;0.580720
1627.599121;0.680272
1628.449463;0.713456
1629.134155;0.630496
1630.008911;0.746640
1630.497070;0.763232
1631.374390;0.763232
1632.253662;0.796416
1632.936646;0.879376
1633.228394;0.365024
1634.008545;0.779824
1634.981934;0.663680
1635.273926;0.530944
1636.251709;0.613904
1636.644165;0.663680
1637.126587;0.630496
1637.615967;0.497760
1638.299072;0.663680
1639.174072;0.630496
1639.564087;0.597312
1640.149170;0.580720
1641.030762;0.613904
1641.515747;0.813008
1642.293823;0.713456
1642.979492;0.730048
1643.956787;0.829600
1644.539062;0.746640
1645.512939;0.912560
1646.391113;0.730048
1646.974609;0.779824
1647.953613;0.713456
1648.438843;0.713456
1649.997070;1.559648
1651.461670;1.260992
1651.948853;0.713456
1652.729004;0.447984
1653.216797;0.813008
1653.800049;0.597312
1654.678711;0.763232
1655.559082;0.696864
1655.948242;0.530944
1656.531372;0.730048
1657.212280;0.630496
1657.699707;0.547536
1658.676392;0.564128
1659.069702;0.630496
1659.944092;0.597312
1660.333740;0.647088
1660.722290;0.597312
1661.406494;0.530944
1661.891968;0.547536
1662.381836;0.580720
1663.066406;0.597312
1663.646851;0.597312
1664.234375;0.580720
1664.817017;0.597312
1665.402222;0.597312
1666.085938;0.580720
1666.866333;0.597312
1667.161987;0.597312
1667.744995;0.597312
1668.329468;0.597312
1669.206177;0.597312
1669.595337;0.597312
1670.421387;0.597312
1670.765625;0.613904
1671.482666;0.597312
1672.351807;0.580720
1672.633301;0.564128
1673.202637;0.613904
1674.080322;0.597312
1674.372437;0.580720
1674.855957;0.564128
1675.736572;0.564128
1676.026123;0.597312
1676.612305;0.580720
1677.684570;0.696864
1678.171509;0.846192
1678.659180;0.530944
1679.146240;0.497760
1679.732544;0.547536
1680.610229;0.564128
1680.803589;0.547536
1681.390137;0.580720
1682.071045;0.613904
1683.341553;0.116144
1683.730835;0.746640
1684.903198;0.862784
1685.487183;0.862784
1685.875977;0.414800
1686.461670;0.564128
1687.141235;0.630496
1687.628540;0.530944
1688.604492;0.680272
1689.191406;0.912560
1690.067871;0.829600
1690.945801;0.846192
1692.016235;0.796416
1692.505005;0.813008
1693.577148;0.779824
1694.162720;0.829600
1695.332275;0.945744
1695.917114;0.846192
1696.892334;0.746640
1697.476440;0.813008
1697.866699;0.348432
1698.842041;0.995520
1699.915405;0.895968
1700.986816;0.962336
1701.475342;0.746640
1702.253906;0.862784
1703.328857;0.862784
1703.816406;0.680272
1704.301270;0.481168
1704.887573;0.597312
1705.568726;0.613904
1706.153809;0.580720
1706.738892;0.580720
1707.617188;0.713456
1708.494263;0.763232
1709.177246;1.012112
1709.956665;0.730048
1711.029785;0.862784
1711.614136;0.829600
1712.397339;0.613904
1712.784790;0.547536
1713.468262;0.647088
1714.443970;0.862784
1715.124756;0.879376
1716.392578;0.978928
1717.368530;0.829600
1717.952881;0.929152
1719.123047;0.813008
1719.707031;0.945744
1720.781372;1.128256
1721.658325;0.829600
1722.632080;0.813008
1723.607178;0.730048
1724.388306;1.211216
1725.558105;1.045296
1726.436279;0.630496
1727.019165;0.564128
1727.605347;0.564128
1727.994629;0.597312
1728.384766;0.597312
1728.970459;0.547536
1729.555664;0.597312
1730.042236;0.514352
1731.407471;0.813008
1732.192993;0.746640
1732.969360;0.813008
1734.042480;0.813008
1734.819458;1.028704
1735.699219;0.895968
1736.867798;0.763232
1737.064575;0.481168
1737.551147;0.580720
1738.232910;0.630496
1739.012817;0.647088
1739.599243;0.763232
1740.773315;0.846192
1741.062256;0.431392
1741.839355;0.663680
1742.620605;0.730048
1743.107666;0.829600
1743.886597;0.763232
1744.765991;0.846192
1745.739868;0.713456
1746.421753;0.962336
1747.399414;0.696864
1747.697021;0.630496
1748.470581;0.796416
1749.455078;0.846192
1750.233521;0.779824
1751.298340;0.995520
1751.786133;0.663680
1752.467285;0.680272
1753.637939;1.128256
1754.613159;0.962336
1755.490723;0.912560
1756.467041;0.846192
1757.417480;0.796416
1757.927368;0.696864
1758.419800;0.580720
1759.002075;0.497760
1759.503296;0.597312
1760.463745;0.597312
1760.659546;0.564128
1761.244873;0.580720
1762.123169;0.879376
1763.296143;0.813008
1763.901001;0.912560
1764.954224;0.813008
1765.536621;0.895968
1766.215210;0.647088
1767.581421;1.410320
1768.365112;0.414800
1768.752686;0.398208
1769.238159;0.696864
1769.727905;0.597312
1770.018921;0.315248
1771.189331;0.929152
1771.779297;0.813008
1772.674927;0.895968
1773.723755;0.796416
1774.407349;0.945744
1775.185425;0.763232
1775.674927;0.497760
1777.039795;1.012112
1777.531494;0.846192
1778.406250;0.862784
1779.281128;0.846192
1780.157959;0.879376
1781.524658;0.895968
1781.913574;0.846192
1783.083618;1.161440
1784.257324;0.962336
1785.325562;1.277584
1786.397949;0.879376
1787.378174;1.095072
1788.449951;1.028704
1789.130005;0.879376
1790.204712;0.929152
1791.177979;0.813008
1791.760498;0.796416
1793.032715;0.995520
1793.713257;1.028704
1794.980713;0.846192
1795.275635;0.680272
1796.348511;0.895968
1797.026001;0.846192
1797.904907;0.846192
1798.978271;0.879376
1799.560913;0.829600
1800.539429;0.929152
1801.121948;0.564128
1801.806885;0.398208
1802.293701;0.597312
1803.071411;1.028704
1804.241333;0.813008
1805.317505;1.095072
1805.898926;0.879376
1806.878174;0.995520
1807.948120;0.978928
1809.023071;0.813008
1809.605957;0.929152
1810.677368;0.663680
1811.072998;0.680272
1811.750122;0.763232
1812.822021;0.945744
1813.893066;0.945744
1814.480347;0.895968
1815.164062;0.663680
1816.137451;0.613904
1816.822998;0.929152
1817.013550;0.248880
1817.307983;0.348432
1817.599365;0.282064
1817.893311;0.315248
1818.184570;0.199104
1818.476074;0.331840
1819.549927;0.696864
1819.946655;0.564128
1820.329224;0.613904
1821.505737;0.613904
1821.989502;0.564128
1822.669067;0.597312
1823.253662;0.580720
1823.744507;0.564128
1824.622070;0.597312
1824.911499;0.564128
1825.593994;0.647088
1826.178589;0.564128
1827.058228;0.547536
1827.449585;0.696864
1827.839111;0.464576
1828.615845;0.713456
1829.980835;0.746640
1830.567627;0.929152
1831.054810;0.829600
1832.028564;0.813008
1832.810425;0.779824
1833.295898;0.613904
1834.075806;0.696864
1834.567383;0.613904
1835.538452;0.796416
1836.124268;0.763232
1837.098999;0.796416
1837.882324;0.962336
1838.952881;0.647088
1839.539185;0.763232
1840.416382;0.696864
1840.710815;0.647088
1841.000488;0.331840
1841.877930;0.680272
1842.364868;0.647088
1842.951172;0.647088
1843.926270;0.580720
1844.220337;0.547536
1844.706177;0.580720
1845.594849;0.580720
1845.874146;0.597312
1846.561768;0.730048
1847.338501;0.580720
1848.118774;0.962336
1848.703125;0.597312
1849.580322;0.597312
1849.969116;0.597312
1850.751221;0.630496
1851.237183;0.647088
1852.115112;0.647088
1852.797363;0.613904
1853.189453;0.630496
1853.774658;0.647088
