timestamp;x;y;z
0.931124;-0.921143;-0.269287;0.239746
0.931613;-0.936523;-0.294922;0.179443
0.931992;-0.917725;-0.213867;0.137939
0.932357;-0.954102;-0.205811;0.128174
1.028285;-0.974121;-0.270264;0.104492
1.028920;-0.960693;-0.365479;0.090088
1.029303;-0.955566;-0.419922;0.089355
1.029769;-0.938477;-0.413818;0.101562
1.125548;-0.943359;-0.339111;0.123291
1.126013;-0.904785;-0.321533;0.083740
1.126422;-0.929688;-0.290039;0.122559
1.126792;-0.948975;-0.238525;0.193359
1.320962;-0.941895;-0.285889;0.176270
1.321431;-0.938477;-0.309814;0.159424
1.321811;-0.931152;-0.304932;0.165283
1.322175;-0.934570;-0.303223;0.152100
1.418044;-0.947510;-0.294678;0.136963
1.418526;-0.953857;-0.291260;0.144775
1.418904;-0.947510;-0.293213;0.143311
1.419429;-0.954102;-0.304199;0.124512
1.516352;-0.944580;-0.336182;0.093506
1.516758;-0.931885;-0.365723;0.088379
1.517127;-0.897461;-0.374023;0.086670
1.517488;-0.869629;-0.385742;0.099609
1.612999;-0.859863;-0.375732;0.119873
1.613918;-0.869629;-0.350586;0.135010
1.614304;-0.931396;-0.320312;0.159180
1.614678;-1.009521;-0.298584;0.182617
1.759229;-1.105469;-0.150879;0.335938
1.759763;-1.241699;0.165039;0.638428
1.760142;-1.127197;0.300293;0.676270
1.760505;-0.922363;-0.012939;0.482910
1.873052;-0.926514;-0.033447;0.392822
1.873529;-0.971680;-0.225342;0.284912
1.873908;-0.928711;-0.253906;0.189209
1.874270;-0.951416;-0.306152;0.194580
1.986903;-0.924805;-0.272217;0.182861
1.987388;-0.918701;-0.260010;0.176270
1.987773;-0.900391;-0.256348;0.174072
1.988139;-0.913818;-0.288818;0.179688
2.116827;-0.920898;-0.285645;0.179443
2.117320;-0.928955;-0.271484;0.196777
2.117795;-0.927734;-0.246826;0.213135
2.118156;-0.942383;-0.151123;0.260742
2.247094;-0.952637;-0.100098;0.351562
2.247542;-0.984375;-0.019531;0.436523
2.247924;-0.905762;-0.056152;0.455811
2.248286;-0.878174;-0.145020;0.418701
2.360840;-0.895020;-0.219727;0.348633
2.361346;-0.895264;-0.224121;0.302246
2.361724;-0.889648;-0.272705;0.250488
2.362090;-0.884521;-0.275391;0.230469
2.474227;-0.887207;-0.280029;0.212402
2.474680;-0.909424;-0.264893;0.216553
2.475178;-0.951904;-0.260742;0.245850
2.475550;-0.987793;-0.270264;0.290771
2.620011;-0.970703;-0.212158;0.337646
2.620498;-0.913086;-0.217285;0.313965
2.620876;-0.905029;-0.226562;0.277588
2.621246;-0.916504;-0.238281;0.233643
2.751185;-0.881104;-0.285156;0.200684
2.751664;-0.949951;-0.264893;0.197021
2.752041;-0.913818;-0.268799;0.176514
2.752406;-0.895752;-0.274414;0.152588
2.864671;-0.892822;-0.287354;0.142578
2.865120;-0.957275;-0.307129;0.136475
2.865496;-1.042725;-0.333984;0.159424
2.866546;-1.056641;-0.331787;0.173828
3.091560;-1.011719;-0.316162;0.188477
3.092193;-0.968750;-0.303223;0.195557
3.092574;-0.930420;-0.293701;0.190430
3.092939;-0.923340;-0.285156;0.190186
3.189269;-0.931641;-0.279053;0.196289
3.189729;-0.928711;-0.274658;0.188721
3.190106;-0.922119;-0.295166;0.164062
3.190475;-0.914307;-0.310303;0.155518
3.287791;-0.927734;-0.316895;0.142090
3.288180;-0.963379;-0.324951;0.139893
3.288551;-0.949951;-0.322021;0.146729
3.288914;-0.936523;-0.319580;0.163086
3.384439;-0.938232;-0.299805;0.174072
3.385043;-0.960693;-0.288818;0.200684
3.385429;-0.979004;-0.272461;0.212891
3.385795;-0.990234;-0.251221;0.211670
3.579314;-0.959229;-0.250977;0.206787
3.579795;-0.926514;-0.268066;0.192627
3.580596;-0.913818;-0.282471;0.170166
3.580965;-0.930420;-0.277344;0.156982
3.676994;-0.951660;-0.282715;0.151367
3.677598;-0.931885;-0.301025;0.156738
3.677983;-0.918945;-0.300781;0.144287
3.678350;-0.905029;-0.309814;0.151123
3.774296;-0.903564;-0.298828;0.154297
3.774744;-0.910400;-0.290039;0.159668
3.775242;-0.923584;-0.285156;0.160889
3.775609;-0.959229;-0.309814;0.145264
3.872563;-0.980957;-0.328613;0.141846
3.872966;-0.986572;-0.304688;0.131836
3.873340;-0.987549;-0.307617;0.123535
3.873703;-0.990479;-0.316895;0.121338
4.457880;-0.984375;-0.324463;0.123047
4.458912;-0.964355;-0.300049;0.128906
4.459300;-0.960205;-0.293945;0.134033
4.460312;-0.964355;-0.292969;0.120850
4.461278;-0.961670;-0.302490;0.111816
4.461637;-0.959473;-0.298340;0.108643
4.461994;-0.952393;-0.299316;0.107666
4.462346;-0.948730;-0.301758;0.105469
4.555369;-0.954346;-0.303467;0.098633
4.555775;-0.960693;-0.311768;0.096924
4.556144;-0.968018;-0.316162;0.089111
4.556509;-0.958984;-0.319580;0.083496
4.651737;-0.954834;-0.327881;0.088379
4.652194;-0.935059;-0.328125;0.089844
4.652572;-0.922607;-0.331787;0.096680
4.653102;-0.915527;-0.323975;0.101074
4.749633;-0.906250;-0.319580;0.103516
4.750025;-0.925293;-0.316650;0.102783
4.750396;-0.966797;-0.325195;0.102295
4.750757;-1.025879;-0.333008;0.081299
4.848804;-1.007080;-0.347656;0.099609
4.849731;-0.895752;-0.346680;0.127197
4.850114;-0.853271;-0.328857;0.160156
4.850475;-0.903320;-0.331543;0.195557
4.850951;-0.992920;-0.303223;0.207764
4.851312;-1.104980;-0.257080;0.285645
4.851670;-1.081543;-0.259033;0.334229
4.852026;-0.981689;-0.248535;0.363281
4.944341;-0.934570;-0.229004;0.345215
4.944852;-0.922363;-0.190674;0.319092
4.945343;-0.928955;-0.141846;0.313965
4.945712;-0.914795;-0.093994;0.301270
5.042290;-0.884277;-0.084473;0.288086
5.042943;-0.845459;-0.120117;0.263916
5.043322;-0.797363;-0.148682;0.239990
5.043687;-0.753174;-0.166260;0.222900
5.139456;-0.732666;-0.165283;0.224121
5.139959;-0.765625;-0.151611;0.233643
5.140336;-0.802246;-0.148438;0.244141
5.140705;-0.856201;-0.149170;0.239014
5.334373;-0.963867;-0.173584;0.231689
5.334849;-1.039551;-0.212402;0.225830
5.335346;-1.074463;-0.261475;0.244385
5.335713;-1.106689;-0.301514;0.282715
5.432067;-1.307373;-0.307617;0.308594
5.432660;-1.509766;-0.351074;0.363281
5.433039;-1.173828;-0.349121;0.361572
5.433492;-0.860596;-0.295410;0.285645
5.529336;-0.827148;-0.177490;0.229004
5.529805;-0.968262;-0.177734;0.154541
5.530180;-1.027344;-0.231934;0.136719
5.530977;-0.983887;-0.267822;0.141113
5.724972;-0.889404;-0.305176;0.156006
5.725482;-0.870850;-0.316895;0.145508
5.725861;-0.865723;-0.310547;0.086914
5.726224;-0.879150;-0.352051;0.052734
5.822951;-0.894775;-0.342773;0.042480
5.823666;-0.887695;-0.319580;0.064453
5.824059;-0.884521;-0.346680;0.047363
5.824423;-0.856201;-0.351074;0.046631
5.924977;-0.853516;-0.356445;0.101562
5.925399;-0.907227;-0.305420;0.166992
5.925904;-0.978516;-0.240723;0.187500
5.926269;-1.048096;-0.198486;0.195312
6.017102;-1.100830;-0.160889;0.238525
6.017735;-1.174316;-0.193115;0.289062
6.018123;-1.189209;-0.273682;0.349609
6.018494;-1.070068;-0.345703;0.515381
6.602761;-0.760010;-0.366943;0.584717
6.603541;-0.648438;-0.222168;0.455566
6.603932;-0.918457;-0.123535;0.239014
6.604304;-1.031250;-0.151611;0.157715
6.699413;-0.994385;-0.213135;0.137695
6.700056;-0.874512;-0.241211;0.166260
6.700437;-0.802002;-0.296631;0.191406
6.700802;-0.732422;-0.308594;0.201416
6.701294;-0.695557;-0.395020;0.182617
6.701659;-0.735840;-0.437988;0.136475
6.702014;-0.790039;-0.407227;0.138428
6.702368;-0.815674;-0.440186;0.230957
6.894331;-0.849854;-0.463867;0.234131
6.894841;-0.964111;-0.403320;0.229004
6.895339;-1.098145;-0.368164;0.243896
6.895709;-1.135010;-0.383057;0.210205
6.991125;-1.308838;-0.383301;0.173340
6.991756;-1.466797;-0.473633;0.354248
6.992276;-0.950439;-0.434082;0.261719
6.992772;-0.975342;-0.374512;0.113525
6.994317;-1.117188;-0.370361;0.103760
6.994705;-0.990967;-0.399902;0.123535
6.995068;-0.823486;-0.401855;0.110840
6.995545;-0.740723;-0.380127;0.102539
6.996478;-0.774414;-0.355957;0.072510
6.996838;-0.793701;-0.434082;0.038818
6.997273;-0.796143;-0.463867;0.020264
6.997961;-0.807373;-0.452637;0.028076
7.090316;-0.834717;-0.449219;0.033691
7.090714;-0.877930;-0.429932;0.055908
7.091085;-0.876221;-0.484619;0.049072
7.091443;-0.836182;-0.530518;0.046875
7.187119;-0.846924;-0.487061;0.101074
7.187612;-0.991455;-0.445068;0.156494
7.187991;-1.098877;-0.482666;0.336182
7.188353;-0.831787;-0.482422;0.557373
7.289382;-0.806885;-0.365967;0.505371
7.289823;-0.953857;-0.182129;0.417236
7.290199;-1.126953;-0.092773;0.329590
7.290563;-1.012939;-0.098877;0.329102
7.869972;-0.904541;-0.109863;0.341553
7.870709;-0.801025;-0.128662;0.343506
7.871092;-0.751465;-0.178467;0.355713
7.871456;-0.750732;-0.201172;0.362305
7.966462;-0.786865;-0.199707;0.344482
7.967079;-0.809570;-0.185303;0.313232
7.967463;-0.833252;-0.185547;0.297607
7.967828;-0.855957;-0.197266;0.314209
8.063582;-0.879639;-0.204834;0.312988
8.064790;-0.919922;-0.203613;0.288086
8.065173;-1.005615;-0.205322;0.280029
8.065535;-1.054199;-0.229492;0.290283
8.066438;-1.059570;-0.244141;0.276855
8.066801;-1.204346;-0.257568;0.249756
8.067156;-1.309814;-0.276611;0.295166
8.067511;-1.235352;-0.270508;0.357178
8.267449;-1.021729;-0.205322;0.410645
8.267841;-0.830811;-0.144775;0.307129
8.268209;-0.924316;-0.160645;0.167969
8.268569;-1.076904;-0.255371;0.187256
8.356571;-1.027344;-0.305908;0.256348
8.358078;-0.887939;-0.355957;0.235107
8.358592;-0.786133;-0.310059;0.234619
8.359278;-0.788818;-0.305664;0.206055
8.359900;-0.837402;-0.365234;0.155029
8.360262;-0.905762;-0.382812;0.103760
8.360685;-0.926025;-0.333008;0.123779
8.361040;-0.901367;-0.308838;0.176270
8.368306;-0.879883;-0.315430;0.188232
8.368709;-0.890381;-0.300293;0.186768
8.369077;-0.897461;-0.278564;0.204102
8.369599;-0.918213;-0.247803;0.239258
8.458023;-0.922363;-0.224121;0.278564
8.458415;-0.890869;-0.203125;0.297852
8.458779;-1.001709;-0.252197;0.277588
8.459261;-1.145508;-0.343994;0.334961
8.551614;-0.978760;-0.364990;0.496826
8.551953;-0.741455;-0.369385;0.557129
8.553288;-0.727295;-0.336182;0.500732
8.553448;-0.892334;-0.420410;0.457031
8.746449;-1.120850;-0.496338;0.604980
8.746598;-1.016602;-0.472900;0.668213
8.746667;-0.839600;-0.498291;0.601318
8.746717;-0.725342;-0.432129;0.616699
8.844158;-0.691162;-0.374268;0.621826
8.844494;-0.649170;-0.377197;0.643066
8.844722;-0.668701;-0.323242;0.652832
8.845092;-0.626709;-0.260742;0.667236
8.941756;-0.640137;-0.214600;0.647217
8.941882;-0.700439;-0.245361;0.561768
8.942089;-0.772217;-0.280273;0.499512
8.942195;-0.763672;-0.317627;0.519287
9.136891;-0.731201;-0.385498;0.533447
9.137117;-0.697510;-0.374023;0.542480
9.137216;-0.722656;-0.291504;0.467773
9.137451;-0.747803;-0.369385;0.515137
9.234696;-0.752197;-0.465576;0.550537
9.235442;-0.703125;-0.452393;0.615967
9.236183;-0.599121;-0.554199;0.617432
9.236403;-0.533936;-0.522461;0.581055
9.334324;-0.432373;-0.494629;0.532227
9.334835;-0.417236;-0.522217;0.555176
9.335428;-0.441650;-0.516602;0.611572
9.335968;-0.450195;-0.472168;0.698730
9.429890;-0.499023;-0.421875;0.718018
9.430143;-0.545166;-0.476074;0.707520
9.430383;-0.627197;-0.511719;0.693604
9.430760;-0.631836;-0.431641;0.678467
10.015782;-0.703613;-0.377686;0.697754
10.016413;-0.797607;-0.391357;0.726562
10.016913;-0.882812;-0.481445;0.740234
10.017283;-0.929688;-0.548096;0.809814
10.018223;-0.869141;-0.489990;0.835205
10.018579;-0.681885;-0.284912;0.760498
10.018932;-0.623047;-0.230713;0.783936
10.019286;-0.641357;-0.221191;0.839111
10.111494;-0.652832;-0.160645;0.875977
10.112122;-0.624756;-0.100586;0.851074
10.112502;-0.581787;-0.064209;0.798828
10.112864;-0.568359;-0.035156;0.718018
10.209809;-0.565674;-0.024902;0.679688
10.210292;-0.556641;-0.041992;0.639404
10.210668;-0.536621;-0.125732;0.657715
10.211103;-0.562500;-0.170898;0.703125
10.404879;-0.576172;-0.193848;0.736084
10.405899;-0.587158;-0.179199;0.759277
10.406301;-0.612793;-0.173584;0.773438
10.407057;-0.617676;-0.141357;0.779541
10.407549;-0.621094;-0.156982;0.755615
10.407908;-0.604248;-0.183350;0.729492
10.408262;-0.586426;-0.204346;0.743896
10.408616;-0.579346;-0.210938;0.772949
10.409969;-0.542969;-0.210205;0.751953
10.410337;-0.502197;-0.213135;0.728271
10.410693;-0.470459;-0.242432;0.775635
10.411073;-0.437012;-0.258301;0.805664
10.502275;-0.422852;-0.262207;0.826904
10.502817;-0.458740;-0.283447;0.846191
10.503191;-0.500000;-0.334229;0.882080
10.503557;-0.556152;-0.373535;0.927002
10.600040;-0.502441;-0.287354;0.893799
10.600541;-0.448242;-0.269531;0.852783
10.600919;-0.393066;-0.266113;0.811279
10.601284;-0.363525;-0.311035;0.815430
10.696962;-0.390869;-0.309082;0.836670
10.697445;-0.413086;-0.310791;0.814209
10.698936;-0.447754;-0.328857;0.763672
10.699320;-0.472900;-0.327637;0.747803
10.892131;-0.496338;-0.328125;0.751221
10.892656;-0.523438;-0.317627;0.725586
10.893040;-0.528320;-0.304688;0.741699
10.893409;-0.565918;-0.304932;0.774170
11.087580;-0.614746;-0.334229;0.834717
11.088230;-0.591797;-0.305664;0.813965
11.088673;-0.615723;-0.259766;0.749512
11.089042;-0.676514;-0.236572;0.704346
11.096365;-0.741211;-0.236084;0.714600
11.096753;-0.810303;-0.208496;0.733643
11.097116;-0.866455;-0.157471;0.695068
11.097475;-0.882812;-0.119141;0.660889
11.184605;-0.882812;-0.132812;0.645752
11.185252;-0.882080;-0.156006;0.576172
11.185637;-0.839111;-0.139404;0.539551
11.186105;-0.797363;-0.200439;0.561035
11.379479;-0.774902;-0.193359;0.555908
11.380238;-0.740479;-0.148193;0.521973
11.380620;-0.742188;-0.178467;0.564941
11.380991;-0.789307;-0.215820;0.650879
11.477616;-0.830078;-0.254395;0.637939
11.478020;-0.907715;-0.305664;0.677002
11.478393;-0.929443;-0.250977;0.750244
11.478755;-0.924316;-0.225342;0.749756
11.575556;-0.886963;-0.191162;0.730469
11.576051;-0.833496;-0.128906;0.726807
11.576436;-0.787109;-0.097656;0.701416
11.576803;-0.728027;-0.079346;0.679199
11.769948;-0.716553;-0.114990;0.661865
11.770430;-0.698975;-0.131104;0.625244
11.770811;-0.695557;-0.100586;0.601562
11.771180;-0.696289;-0.078857;0.571533
11.874874;-0.687988;-0.042725;0.533447
11.875475;-0.703613;-0.038574;0.512207
11.875843;-0.706787;-0.079590;0.527588
11.876206;-0.718506;-0.103516;0.538574
11.965391;-0.717041;-0.084717;0.560791
11.965903;-0.712646;-0.049316;0.625732
11.966280;-0.716309;-0.016846;0.686279
11.966644;-0.780762;0.010986;0.660645
12.159563;-0.723877;0.040039;0.612793
12.160070;-0.650635;-0.020020;0.638916
12.160450;-0.618408;-0.045898;0.673828
12.160814;-0.603516;-0.076660;0.612793
12.257098;-0.635742;-0.106201;0.599609
12.257714;-0.706299;-0.143555;0.599365
12.258097;-0.739746;-0.164062;0.563477
12.258468;-0.811768;-0.238770;0.524658
12.354468;-0.882324;-0.282471;0.518066
12.354943;-0.865234;-0.360352;0.560303
12.355320;-0.872803;-0.524658;0.625977
12.355682;-0.918945;-0.553711;0.603516
12.453271;-0.870361;-0.438477;0.643066
12.453686;-0.827637;-0.316895;0.728271
12.454056;-0.748535;-0.261719;0.710205
12.454417;-0.654297;-0.311523;0.624023
13.038227;-0.660645;-0.496338;0.734863
13.038754;-0.596436;-0.369141;0.709961
13.039138;-0.524658;-0.328613;0.674072
13.039508;-0.531494;-0.361084;0.715332
13.135230;-0.479980;-0.364502;0.722900
13.135748;-0.449463;-0.342285;0.727051
13.136635;-0.417969;-0.326660;0.704102
13.137009;-0.456055;-0.299805;0.677979
13.233171;-0.443848;-0.324951;0.740967
13.233571;-0.410156;-0.348389;0.715820
13.234436;-0.398438;-0.330322;0.801514
13.234813;-0.375000;-0.312256;0.898193
13.329719;-0.351318;-0.257812;0.957764
13.330423;-0.316406;-0.265381;0.933594
13.330818;-0.233887;-0.232910;0.993408
13.331190;-0.188232;-0.238770;1.017090
13.426753;-0.200928;-0.236084;0.972168
13.427373;-0.180908;-0.282471;1.123535
13.428183;-0.151855;-0.248291;1.162842
13.428846;-0.132324;-0.211182;1.119873
13.429803;-0.057129;-0.147217;1.013428
13.430165;-0.070557;-0.067871;0.872803
13.430527;0.004395;-0.005371;0.821533
13.430884;-0.072021;-0.294434;1.014648
13.432240;-0.092041;-0.177490;1.047852
13.432609;0.017822;-0.168945;1.249512
13.432967;0.059814;-0.103760;0.999756
13.433324;0.194092;0.149902;0.908691
13.538230;0.048096;-0.296387;1.020752
13.538692;0.060303;0.190186;1.078857
13.539071;0.075195;0.156494;0.919189
13.541778;0.002441;0.136719;1.031982
13.622232;-0.074463;0.016113;0.987549
13.622869;-0.112061;-0.112793;0.922607
13.623252;-0.154541;-0.063477;0.952881
13.623619;-0.169678;0.001953;1.007324
13.720008;-0.098389;0.020752;0.985352
13.720488;-0.126709;-0.079590;1.014160
13.720869;-0.129639;-0.072510;1.005859
13.721236;-0.121826;-0.130615;0.993164
13.918213;-0.122070;-0.156738;0.969727
13.924101;-0.002441;-0.000488;0.927002
13.924514;0.020020;-0.150879;1.007812
13.924917;0.010498;-0.249023;1.056396
14.011963;0.033936;-0.280029;0.990967
14.012015;-0.061279;-0.257812;0.991211
14.012036;-0.126709;-0.205566;0.979492
14.012055;-0.072998;-0.146484;0.948730
14.108913;-0.047363;-0.322998;0.995850
14.109011;-0.013428;-0.330322;1.011230
14.109048;0.028320;-0.166504;0.976318
14.109081;0.004639;-0.288574;1.048584
14.304294;0.016357;-0.281494;0.988281
14.304506;-0.050293;-0.234131;1.022705
14.304617;-0.064453;-0.212402;1.026367
14.304870;-0.080078;-0.219238;1.124268
14.401994;0.081787;-0.075195;1.058838
14.402494;0.150879;-0.045898;0.987061
14.402766;0.126953;-0.072754;0.950439
14.403013;0.114990;-0.075928;0.987549
14.499605;0.152832;-0.044189;0.961426
14.499800;0.197021;-0.047607;0.868164
14.499888;0.182861;0.039307;0.790283
14.499972;0.098145;0.032471;0.836182
14.597400;0.014160;0.071533;0.983398
14.597706;-0.067627;0.059082;0.908936
14.597859;-0.143311;0.067627;0.999756
14.598093;-0.119873;0.167236;0.953613
15.185301;-0.127930;0.005371;0.860352
15.185908;-0.160400;0.021240;0.918701
15.186290;-0.144043;0.033203;0.855225
15.186655;0.467041;-0.818604;0.855469
15.289457;-0.189209;0.378174;1.032471
15.290085;-0.004639;0.025391;0.997559
15.290472;0.004639;0.055664;1.017334
15.290837;-0.016602;-0.005371;0.995850
15.291334;0.030762;0.092041;0.995605
15.291694;-0.033447;0.104736;1.006592
15.292049;-0.011719;0.027100;1.005615
15.292404;-0.004150;0.008789;1.003906
15.377387;0.017090;-0.052734;0.993896
15.377684;-0.009033;-0.070801;1.005859
15.377970;0.010742;-0.088379;1.004883
15.378295;0.214600;0.062744;0.998291
15.511712;-0.186035;-0.051758;1.019775
15.512378;0.098633;0.056152;0.991455
15.512413;-0.103271;0.012451;1.006104
15.512435;-0.010742;0.006104;0.998779
15.668542;-0.077637;0.005859;1.005859
15.668623;0.006592;-0.007812;1.001465
15.668666;-0.048096;0.024658;1.008301
15.668704;-0.001221;0.008789;1.000000
15.768765;-0.021973;-0.011719;1.002686
15.768873;-0.006592;-0.045410;1.002930
15.768939;-0.012939;-0.032471;1.004395
15.768998;-0.006592;-0.041748;1.001221
15.769809;-0.029297;-0.027832;1.008057
15.770340;-0.014648;-0.002930;1.003662
15.770434;-0.023193;0.032227;1.000977
15.770636;-0.023193;-0.037354;1.001465
15.864066;-0.006836;-0.063721;0.999268
15.864242;-0.019043;-0.070312;1.000732
15.864337;-0.022461;-0.107910;1.002441
15.864467;0.001709;-0.076416;0.996338
16.059614;0.005615;-0.073486;0.998291
16.060011;0.021729;-0.113281;0.999512
16.060144;-0.003906;-0.104004;0.981201
16.060234;-0.011230;-0.069092;1.006104
16.061216;-0.042725;-0.072998;1.000488
16.061712;-0.026123;-0.043945;0.997314
16.061867;-0.022461;-0.069092;1.000244
16.061970;-0.065186;-0.105957;1.001953
16.162905;-0.041504;-0.111328;1.005127
16.163109;-0.034912;-0.090820;0.995361
16.163206;-0.006348;-0.112549;0.994629
16.163294;-0.041992;-0.138428;0.995605
16.449364;0.014404;-0.132568;0.992432
16.449715;-0.002441;-0.070068;0.993164
16.449999;0.005371;-0.128906;0.994141
16.450724;0.001953;-0.129639;0.993408
16.451086;-0.020264;-0.166504;0.989014
16.451197;0.016357;-0.159180;0.985840
16.451279;0.005859;-0.135742;0.993408
16.451374;-0.037109;-0.146973;0.994873
16.547136;0.005127;-0.124756;0.987305
16.547281;-0.007568;-0.132080;0.988037
16.547371;-0.005615;-0.152100;0.989014
16.547466;-0.002197;-0.143066;0.988281
16.645170;-0.004150;-0.180420;0.989502
16.645302;0.002930;-0.170654;0.988037
16.645395;-0.001953;-0.156006;0.989258
16.645479;0.003418;-0.155762;0.990967
16.742260;-0.001465;-0.132812;0.991455
16.742411;-0.002686;-0.114502;0.994629
16.742504;-0.004150;-0.176270;0.999023
16.742592;-0.014648;-0.185547;0.990723
16.937164;-0.018311;-0.114258;0.994629
16.937309;-0.021484;-0.053467;0.997070
16.937403;-0.001953;-0.052979;0.994385
16.937489;-0.010986;-0.087891;0.996094
17.035023;0.003174;-0.118652;0.994873
17.035143;-0.018066;-0.086670;0.996826
17.035234;-0.009033;-0.051025;0.998535
17.035320;-0.011475;-0.099609;1.002686
17.132601;-0.018311;-0.097900;0.997803
17.132734;-0.016602;-0.074219;0.997070
17.132828;-0.006592;-0.121338;0.996094
17.132912;-0.023193;-0.114746;0.997559
17.327669;-0.019531;-0.081299;0.991943
17.327814;-0.014893;-0.121094;0.995117
17.327908;-0.012939;-0.109863;0.988525
17.327991;0.004883;-0.089844;0.994385
17.425367;-0.013672;-0.112061;0.992920
17.425510;-0.001465;-0.103760;0.996582
17.425606;-0.007812;-0.109375;0.997070
17.425695;0.045166;-0.106934;1.007080
17.522018;-0.078613;-0.163818;0.990967
17.522158;0.013184;-0.141602;0.995850
17.522251;-0.293213;-0.057129;1.062988
17.522335;-0.028320;0.044678;1.241455
17.620144;0.197021;-0.176758;1.149414
17.620262;-0.031494;-0.336914;1.066406
17.620350;0.049561;-0.415771;1.029541
17.620434;0.074463;-0.362549;1.036621
18.207222;0.016846;-0.512939;1.030029
18.207357;0.035156;-0.566406;0.948242
18.207457;0.070312;-0.609375;0.883789
18.207544;0.154541;-0.557861;0.711182
18.209314;0.259766;-0.594238;0.604248
18.209400;0.346436;-0.678711;0.507080
18.209482;0.411865;-0.655029;0.173584
18.209578;0.525146;-0.835938;0.047607
18.303080;0.647949;-0.824219;0.045410
18.303204;0.531494;-0.873291;-0.028564
18.303583;0.646729;-0.673584;-0.153076
18.303677;0.741943;-0.533447;-0.318115
18.304968;0.792236;-0.579102;-0.273193
18.305071;0.809814;-0.572998;-0.245850
18.305157;0.768555;-0.610840;-0.174316
18.305239;0.825928;-0.586426;-0.045898
18.400719;0.773926;-0.416016;-0.050049
18.400841;0.758057;-0.177734;0.114990
18.400934;0.896240;-0.209717;0.232422
18.401020;0.874756;-0.170654;0.187988
18.402483;0.834473;-0.178955;0.176758
18.402584;0.849121;-0.288330;0.207764
18.402662;0.846191;-0.283936;0.218750
18.402739;0.872803;-0.243896;0.195312
18.497072;0.866699;-0.245117;0.216309
18.497210;0.860840;-0.230469;0.278076
18.497301;0.836426;-0.273926;0.270508
18.497387;0.844727;-0.329346;0.229736
18.692467;0.860596;-0.360107;0.191650
18.692600;0.881592;-0.293213;0.190918
18.692696;0.895264;-0.344238;0.150879
18.692781;0.908691;-0.342529;0.124023
18.888954;0.921143;-0.343994;0.137939
18.889084;0.921387;-0.400879;0.133789
18.889193;0.899170;-0.323486;0.163330
18.889280;0.802979;-0.375977;0.099854
18.892632;1.019287;-0.305176;0.102295
18.893276;0.963135;-0.279297;0.048584
18.893366;0.970947;-0.253662;0.094238
18.893444;0.904785;-0.296143;0.136719
19.082094;0.839355;-0.324219;0.174561
19.082638;0.898682;-0.248535;0.191162
19.082731;0.944580;-0.324707;0.221436
19.082815;0.820312;-0.331055;0.215576
19.180025;0.881104;-0.292236;0.189209
19.180159;0.907471;-0.312012;0.167725
19.180256;0.912842;-0.359863;0.129639
19.180342;0.973633;-0.362793;0.160400
19.277163;0.905518;-0.324463;0.186523
19.277300;0.937744;-0.294434;0.260010
19.277391;0.878906;-0.324219;0.306396
19.277479;0.879883;-0.298584;0.354736
19.441509;0.803955;-0.302979;0.395020
19.441610;0.829834;-0.348389;0.438477
19.441996;0.838379;-0.389648;0.480225
19.454815;0.788818;-0.345459;0.484131
19.959887;0.692139;-0.300537;0.555420
19.960030;0.710938;-0.246582;0.600098
19.960117;0.592041;-0.094238;0.514404
19.960213;0.490479;0.122070;0.540039
19.961220;1.033203;-0.327881;0.598389
19.961336;0.548096;-0.075195;0.587158
19.961428;0.770996;0.005859;0.577637
19.961512;0.696289;-0.016113;0.518555
20.057428;0.723877;-0.232910;0.547607
20.057577;0.797119;-0.234131;0.586426
20.057686;0.681396;-0.179443;0.648438
20.057775;0.409668;-0.129150;0.781006
20.155277;0.239502;-0.459473;0.763184
20.155552;0.056396;-0.190186;0.816406
20.155649;-0.117676;-0.128418;0.934814
20.155764;-0.355469;-0.334717;1.089600
20.156960;-0.392090;-0.194336;1.074219
20.157364;-0.263184;-0.027832;1.134277
20.157669;-0.334229;0.121582;1.147461
20.157782;-0.345215;0.114746;1.091309
20.251453;-0.227783;0.044434;1.041016
20.251650;-0.141357;-0.051514;1.086914
20.251743;-0.095459;0.008057;1.061768
20.251827;-0.045654;0.106934;1.034668
20.350494;0.146484;0.294678;0.627197
20.350613;-0.017822;0.293701;1.047607
20.350702;0.089111;0.088135;1.040771
20.350792;0.546875;-0.325439;1.013916
20.447733;-0.540771;0.269043;1.030518
20.447853;0.450928;-0.199951;0.979248
20.447947;-0.193115;0.015869;1.001709
20.448032;0.137207;0.100586;0.987793
20.544693;-0.063232;0.046631;1.004883
20.544834;-0.000244;0.112061;1.000244
20.545059;-0.056641;0.074463;1.003662
20.545147;0.012207;0.069824;0.998535
20.642946;-0.019043;0.037842;0.995361
20.643064;-0.012695;-0.113281;0.996826
20.643158;-0.018799;-0.036377;0.979248
20.643244;-0.030518;-0.252197;0.989502
21.228962;-0.016113;-0.297852;0.982178
21.229408;-0.004883;0.053223;0.984619
21.229506;-0.059814;-0.087891;0.999268
21.229593;-0.020996;-0.193115;0.999023
21.231068;-0.040771;-0.081299;0.995850
21.231730;0.014648;-0.056152;1.000977
21.231833;-0.030518;-0.027344;0.998291
21.231918;0.001709;-0.039795;1.001953
21.324839;-0.038086;0.015137;0.997803
21.325106;-0.001953;-0.012939;0.997559
21.325203;-0.018799;-0.047852;1.005371
21.325289;-0.004150;-0.088379;0.999756
21.422512;-0.015381;-0.071289;1.001465
21.422649;-0.004639;-0.094971;0.997559
21.422762;-0.011963;-0.083496;0.996094
21.422848;-0.012207;-0.084473;1.001221
21.520700;-0.012939;-0.053223;0.999268
21.520842;-0.013916;-0.112061;0.998535
21.520939;-0.010498;-0.045654;0.993164
21.521378;-0.016357;-0.126709;0.998535
21.523321;-0.002686;-0.102539;0.995361
21.523409;-0.011963;-0.116943;0.995361
21.523493;-0.008789;-0.118896;0.992432
21.523575;-0.016846;-0.112549;0.993408
21.618025;-0.008301;-0.104004;0.996338
21.618172;-0.010742;-0.108643;0.994141
21.618286;-0.004639;-0.128662;0.995361
21.618376;-0.010986;-0.110840;0.992920
21.719294;-0.010498;-0.098389;0.991943
21.719427;-0.011230;-0.113037;0.994873
21.719521;-0.019287;-0.104004;0.992920
21.719608;-0.004150;-0.120605;0.995850
21.812727;-0.016602;-0.107910;0.999268
21.812847;-0.009766;-0.116455;0.995850
21.812937;-0.012939;-0.101074;0.993652
21.813023;-0.005127;-0.109375;0.994141
21.910477;-0.016357;-0.141846;1.005371
21.910599;0.021729;-0.024902;1.028564
21.910690;-0.158936;-0.177490;0.999756
21.910797;-0.569824;0.116699;1.567627
22.105139;-0.437012;-0.212891;1.107666
22.105293;-0.225586;-0.499268;0.848389
22.105389;-0.240234;-0.292480;0.773682
22.105474;-0.261475;-0.157959;0.802490
22.202644;-0.145752;-0.082275;0.752197
22.202784;-0.018799;-0.110107;0.620117
22.202881;0.033447;-0.070801;0.628418
22.202971;0.073242;-0.123535;0.624023
22.300180;0.309082;-0.229248;0.749756
22.300320;0.269775;-0.204834;0.850342
22.300413;0.785156;-0.639404;1.190430
22.300499;0.004639;0.032227;0.809814
22.494829;-0.155273;-0.160156;0.823242
22.495096;-0.021484;-0.116699;0.952881
22.495192;-0.653809;-0.267334;1.115967
22.495279;-0.532471;-0.238770;1.012695
22.592527;-0.364502;-0.417480;1.110840
22.592667;-0.327637;-0.181396;1.343018
22.592760;-0.337158;-0.111816;1.365723
22.592846;-0.512207;-0.287109;1.153809
22.690397;-0.479492;-0.014893;1.110596
22.690556;-0.399414;-0.065674;0.954590
22.690672;-0.270020;-0.087402;0.813721
22.690758;-0.183105;-0.023682;0.756592
22.787767;-0.169922;-0.116211;0.712891
22.787886;-0.155273;-0.499268;0.975830
22.787977;-0.385010;-0.367188;0.960205
22.788063;-0.308594;-0.009766;0.852783
23.372692;-0.281738;0.023926;0.837402
23.372988;-0.362549;-0.223633;0.817383
23.373087;-0.396240;-0.417480;0.875000
23.373177;-0.512451;-0.445068;0.873535
23.470104;-0.457520;-0.110352;0.927734
23.470261;-0.416260;-0.102295;0.971680
23.470703;-0.395752;-0.153564;0.971680
23.470802;-0.400879;-0.253418;0.935059
23.472235;-0.368896;-0.223145;0.903809
23.472343;-0.343994;-0.237061;0.871582
23.472427;-0.345947;-0.219971;0.824219
23.472511;-0.355225;-0.220459;0.868896
23.568579;-0.417725;-0.203613;0.923584
23.568727;-0.436523;-0.215088;0.908203
23.568821;-0.447266;-0.194580;0.913330
23.568905;-0.442627;-0.190430;0.900879
23.570032;-0.418945;-0.187500;0.904297
23.570135;-0.422607;-0.192383;0.924316
23.570234;-0.425293;-0.186035;0.931885
23.570320;-0.419189;-0.177490;0.909180
23.667459;-0.415527;-0.190674;0.896973
23.667572;-0.427246;-0.193359;0.898926
23.667664;-0.412109;-0.226562;0.884521
23.667749;-0.418457;-0.219482;0.903320
23.668736;-0.428223;-0.216797;0.907959
23.668837;-0.419678;-0.237061;0.882324
23.668921;-0.414551;-0.255127;0.884766
23.669003;-0.410645;-0.264160;0.870117
23.859783;-0.404053;-0.323486;0.854492
23.859928;-0.406250;-0.379395;0.846680
23.860023;-0.437500;-0.399658;0.821533
23.860107;-0.377197;-0.417480;0.782471
23.958300;-0.389648;-0.400635;0.870850
23.958452;-0.407471;-0.316895;0.866699
23.958548;-0.371826;-0.271240;0.885498
23.958633;-0.399170;-0.257324;0.892578
24.055141;-0.406494;-0.257080;0.894287
24.055277;-0.403564;-0.237061;0.900146
24.055372;-0.387695;-0.267334;0.894775
24.055458;-0.391846;-0.310791;0.887207
24.250154;-0.369873;-0.296387;0.870361
24.250290;-0.371826;-0.325439;0.860840
24.250383;-0.389160;-0.334229;0.858154
24.250469;-0.372314;-0.312744;0.869629
24.369072;-0.371094;-0.315186;0.868164
24.369205;-0.387207;-0.307617;0.872803
24.369303;-0.395508;-0.284424;0.876953
24.369392;-0.402344;-0.285889;0.875977
24.457096;-0.399902;-0.310791;0.867920
24.457151;-0.393555;-0.313477;0.865234
24.457178;-0.392090;-0.316650;0.865234
24.457205;-0.397949;-0.310059;0.868164
24.639563;-0.398682;-0.299316;0.869385
24.639675;-0.393311;-0.283203;0.875732
24.639736;-0.393066;-0.296875;0.872559
24.639795;-0.391602;-0.310791;0.869629
24.737820;-0.388428;-0.313232;0.865479
24.737925;-0.392090;-0.310303;0.865967
24.738012;-0.396484;-0.309082;0.867676
24.738098;-0.392090;-0.297607;0.873535
24.834900;-0.392334;-0.296387;0.875488
24.835043;-0.389404;-0.298828;0.871094
24.835136;-0.387695;-0.303711;0.866699
24.835222;-0.403564;-0.311768;0.862305
25.127226;-0.400391;-0.309814;0.873047
25.127712;-0.395996;-0.312256;0.872559
25.127808;-0.391846;-0.297852;0.867676
25.127897;-0.388672;-0.285645;0.877441
25.129063;-0.402588;-0.304443;0.892090
25.129166;-0.397217;-0.284668;0.880615
25.129250;-0.387939;-0.281982;0.872803
25.129332;-0.394531;-0.296631;0.881836
25.225618;-0.402100;-0.303223;0.875732
25.225718;-0.385742;-0.291016;0.866211
25.225805;-0.383301;-0.300537;0.860596
25.225889;-0.384033;-0.305908;0.869629
25.322306;-0.400635;-0.309082;0.874512
25.322447;-0.394043;-0.310791;0.868408
25.322538;-0.385254;-0.297852;0.872559
25.322624;-0.385498;-0.294434;0.874512
25.517820;-0.385498;-0.308350;0.865723
25.517958;-0.379883;-0.317871;0.868164
25.518049;-0.372803;-0.310059;0.869141
25.518135;-0.389893;-0.308105;0.875244
25.615257;-0.393799;-0.290771;0.875488
25.615379;-0.397461;-0.285645;0.880615
25.615471;-0.399902;-0.280029;0.885010
25.615557;-0.404053;-0.284424;0.878906
25.712397;-0.408203;-0.291504;0.862793
25.712553;-0.408691;-0.294678;0.864746
25.712646;-0.397217;-0.310547;0.859131
25.712732;-0.394287;-0.305664;0.860352
25.907885;-0.402588;-0.313721;0.865234
25.908031;-0.394775;-0.303711;0.876465
25.908125;-0.396729;-0.302002;0.875000
25.908213;-0.396973;-0.299561;0.872803
26.004047;-0.399902;-0.306641;0.878906
26.004108;-0.392578;-0.315186;0.868652
26.004143;-0.384277;-0.294922;0.865723
26.004173;-0.388916;-0.292969;0.883057
26.101788;-0.399658;-0.301758;0.874756
26.101852;-0.399414;-0.293213;0.858154
26.101894;-0.402832;-0.306152;0.854492
26.101933;-0.393311;-0.319092;0.857422
26.200241;-0.389160;-0.303467;0.861572
26.200327;-0.402100;-0.304443;0.867676
26.200386;-0.378418;-0.322998;0.878418
26.200443;-0.437500;-0.357178;0.947754
26.785915;-0.291016;-0.419434;0.930908
26.786066;-0.392578;-0.115723;0.653809
26.786160;-0.386719;-0.306641;0.721924
26.786245;-0.491943;-0.368164;1.096924
26.787388;-0.371826;-0.302979;0.975098
26.787493;-0.316650;-0.278564;0.744873
26.787577;-0.393555;-0.300537;0.765381
26.787661;-0.463623;-0.321777;0.922607
26.979630;-0.425537;-0.285156;0.892578
26.979862;-0.399658;-0.263916;0.842773
26.979961;-0.389160;-0.309082;0.870605
26.980051;-0.398193;-0.338135;0.868652
26.981014;-0.392822;-0.322510;0.863037
26.981121;-0.399414;-0.298584;0.857422
26.981207;-0.401855;-0.296875;0.884766
26.981293;-0.398193;-0.315674;0.896729
27.078577;-0.373779;-0.322021;0.858887
27.078699;-0.374268;-0.327148;0.844971
27.078793;-0.383545;-0.331787;0.856934
27.078878;-0.387939;-0.301025;0.875244
27.175596;-0.391602;-0.282471;0.878174
27.175751;-0.397217;-0.281494;0.880371
27.175846;-0.401367;-0.310059;0.873535
27.175934;-0.392822;-0.328369;0.860840
27.274162;-0.392090;-0.329102;0.857910
27.274300;-0.396973;-0.323242;0.864014
27.274454;-0.396484;-0.304443;0.870850
27.274542;-0.396484;-0.303711;0.873779
27.276989;-0.388916;-0.309814;0.869385
27.277094;-0.386719;-0.315674;0.869385
27.277180;-0.384033;-0.317383;0.868408
27.277262;-0.384521;-0.315918;0.864990
27.370049;-0.385010;-0.314209;0.870850
27.370176;-0.387939;-0.312744;0.871826
27.370272;-0.385010;-0.318848;0.872070
27.370358;-0.382812;-0.317627;0.866943
27.469034;-0.385498;-0.317383;0.867920
27.469179;-0.388184;-0.315674;0.867920
27.469273;-0.382812;-0.313721;0.869141
27.469360;-0.382080;-0.312256;0.873047
27.662413;-0.383789;-0.313477;0.872314
27.662560;-0.386475;-0.318115;0.872803
27.662651;-0.379395;-0.319824;0.868896
27.662741;-0.384033;-0.319580;0.864746
27.760201;-0.385254;-0.315918;0.870117
27.760342;-0.385498;-0.317139;0.871338
27.760435;-0.383301;-0.319824;0.868164
27.760523;-0.382080;-0.317871;0.868896
27.857872;-0.384277;-0.318115;0.868408
27.858013;-0.385986;-0.312256;0.872070
27.858107;-0.385254;-0.317627;0.872803
27.858192;-0.384277;-0.317139;0.867432
28.052820;-0.383057;-0.316162;0.872070
28.052940;-0.383057;-0.313721;0.871826
28.053028;-0.384766;-0.308594;0.872070
28.053114;-0.387695;-0.311768;0.872314
28.153646;-0.388184;-0.312744;0.870605
28.153772;-0.384033;-0.312256;0.868408
28.153868;-0.385010;-0.313232;0.869385
28.153954;-0.390625;-0.316162;0.869385
28.247416;-0.390381;-0.308350;0.869141
28.247562;-0.382568;-0.302734;0.870850
28.247658;-0.388184;-0.312256;0.873291
28.247744;-0.388672;-0.312744;0.871338
28.345339;-0.388672;-0.310059;0.868408
28.345459;-0.386230;-0.307861;0.869629
28.345547;-0.392334;-0.308594;0.872070
28.345633;-0.390625;-0.310303;0.871338
28.930956;-0.388428;-0.312012;0.871338
28.931112;-0.387207;-0.311523;0.866943
28.931208;-0.387695;-0.307861;0.869141
28.931313;-0.385986;-0.312988;0.870605
28.932486;-0.385254;-0.314697;0.870850
28.932589;-0.387207;-0.310303;0.870605
28.932673;-0.385986;-0.307861;0.870605
28.932756;-0.384033;-0.311523;0.874268
29.028240;-0.385010;-0.314697;0.866455
29.028362;-0.386719;-0.314697;0.866455
29.028454;-0.390625;-0.310547;0.873779
29.028540;-0.387695;-0.308594;0.870605
29.127541;-0.382812;-0.308350;0.870361
29.127661;-0.389160;-0.309570;0.872314
29.127748;-0.385742;-0.309082;0.870117
29.127834;-0.386475;-0.310059;0.871582
29.224209;-0.390137;-0.307373;0.871338
29.224304;-0.389893;-0.312988;0.870605
29.224392;-0.386719;-0.312744;0.866211
29.224476;-0.384521;-0.312988;0.870850
29.225933;-0.386963;-0.314453;0.869629
29.226044;-0.385742;-0.314697;0.869629
29.226128;-0.387207;-0.312500;0.870361
29.226212;-0.384766;-0.312500;0.869629
29.320089;-0.385986;-0.315186;0.867432
29.320221;-0.387939;-0.312744;0.868164
29.320316;-0.388916;-0.312988;0.870850
29.320404;-0.384766;-0.314697;0.869873
29.420589;-0.385254;-0.317383;0.868164
29.420717;-0.383545;-0.313721;0.869385
29.420811;-0.387451;-0.309814;0.873535
29.420897;-0.388672;-0.309082;0.873535
29.709881;-0.388672;-0.310547;0.872070
29.710373;-0.387207;-0.315674;0.867676
29.710470;-0.384766;-0.320801;0.864746
29.710560;-0.386230;-0.312256;0.872314
29.711746;-0.387451;-0.308350;0.871826
29.711847;-0.388916;-0.309814;0.871826
29.711931;-0.385742;-0.317139;0.868896
29.712013;-0.387939;-0.317871;0.866943
29.808331;-0.387451;-0.313965;0.867432
29.808479;-0.388184;-0.312744;0.872314
29.808575;-0.392090;-0.313965;0.870361
29.808662;-0.383301;-0.309814;0.868896
29.905163;-0.385742;-0.309082;0.871582
29.905312;-0.385010;-0.313477;0.871582
29.905407;-0.384766;-0.312744;0.870850
29.905493;-0.386963;-0.312988;0.867432
30.003180;-0.390625;-0.311035;0.872070
30.003296;-0.387939;-0.311768;0.870117
30.003386;-0.389160;-0.312500;0.870117
30.003469;-0.388916;-0.317871;0.866211
30.099798;-0.384766;-0.317383;0.868164
30.099939;-0.389160;-0.317139;0.867432
30.100033;-0.387695;-0.313477;0.870605
30.100119;-0.389648;-0.312500;0.872070
30.295000;-0.388916;-0.314941;0.869141
30.295151;-0.383545;-0.313232;0.872070
30.295244;-0.384766;-0.303223;0.872070
30.295330;-0.383789;-0.310791;0.872559
30.392908;-0.388916;-0.305908;0.875977
30.393045;-0.388672;-0.294922;0.872314
30.393139;-0.384521;-0.305908;0.872314
30.393223;-0.385986;-0.314453;0.873291
30.490488;-0.385498;-0.318359;0.867432
30.490641;-0.387207;-0.316650;0.866699
30.490734;-0.380859;-0.315674;0.876465
30.490824;-0.386719;-0.312012;0.872559
30.685637;-0.389893;-0.309814;0.872803
30.685776;-0.385254;-0.306396;0.876465
30.685867;-0.384521;-0.308594;0.872314
30.685953;-0.383789;-0.310547;0.870361
30.785759;-0.383301;-0.313721;0.862549
30.786036;-0.381592;-0.312012;0.864990
30.787067;-0.388184;-0.313965;0.869141
30.787323;-0.390137;-0.306396;0.874268
30.879908;-0.391602;-0.301025;0.874023
30.880056;-0.396973;-0.305420;0.877930
30.880150;-0.389893;-0.306885;0.866211
30.880323;-0.385254;-0.321045;0.862793
30.978714;-0.382080;-0.310791;0.872314
30.978807;-0.385986;-0.304688;0.872314
30.978893;-0.393555;-0.301025;0.872803
30.978977;-0.386230;-0.313232;0.868652
31.563463;-0.385010;-0.320068;0.872070
31.564007;-0.385986;-0.315430;0.873779
31.564114;-0.384277;-0.311768;0.874512
31.564201;-0.386475;-0.304932;0.874268
31.565771;-0.388672;-0.299316;0.874756
31.565882;-0.385742;-0.309570;0.866211
31.565968;-0.383789;-0.312744;0.867188
31.566051;-0.391357;-0.320801;0.869873
31.660307;-0.396484;-0.312256;0.865479
31.660767;-0.388428;-0.302002;0.869629
31.660864;-0.381836;-0.301758;0.874756
31.660952;-0.384277;-0.309326;0.881348
31.662682;-0.384033;-0.306641;0.871094
31.662785;-0.385742;-0.302979;0.868408
31.662870;-0.384277;-0.308350;0.868896
31.662952;-0.385742;-0.320801;0.863525
31.664003;-0.380371;-0.323486;0.863281
31.664108;-0.382812;-0.307861;0.864990
31.664192;-0.389160;-0.297852;0.873779
31.664274;-0.397217;-0.298096;0.875732
31.759102;-0.385010;-0.310303;0.870605
31.759214;-0.377441;-0.320557;0.874756
31.759308;-0.377197;-0.330078;0.873047
31.759392;-0.387207;-0.310547;0.871582
32.342918;-0.395264;-0.300537;0.879395
32.343224;-0.390137;-0.301514;0.882568
32.343323;-0.386475;-0.306396;0.872559
32.343410;-0.384766;-0.311279;0.866455
32.439907;-0.387451;-0.306641;0.864746
32.440060;-0.390869;-0.305420;0.867188
32.440155;-0.394287;-0.303955;0.870361
32.440243;-0.396973;-0.308838;0.871094
32.537144;-0.391357;-0.313965;0.864014
32.537292;-0.388184;-0.313232;0.866943
32.537384;-0.388184;-0.310303;0.872559
32.537476;-0.387939;-0.307129;0.870850
32.538418;-0.388428;-0.307617;0.871094
32.538528;-0.389160;-0.310059;0.874512
32.538612;-0.388428;-0.315918;0.865234
32.538696;-0.390137;-0.319824;0.864990
32.636238;-0.382568;-0.322998;0.862061
32.636349;-0.382324;-0.315918;0.869141
32.636440;-0.390381;-0.314209;0.873047
32.636524;-0.391602;-0.308350;0.871094
32.733864;-0.394775;-0.308350;0.871582
32.734009;-0.386719;-0.315186;0.867188
32.734886;-0.384033;-0.318115;0.862305
32.734978;-0.385986;-0.320801;0.869873
32.736809;-0.388428;-0.317383;0.870850
32.736912;-0.386475;-0.311523;0.868652
32.736996;-0.395020;-0.303955;0.869629
32.737080;-0.388672;-0.305420;0.869873
32.829865;-0.386230;-0.315918;0.873779
32.830006;-0.385742;-0.322510;0.870850
32.830097;-0.389160;-0.321289;0.859131
32.830185;-0.387939;-0.314209;0.856201
32.927773;-0.385498;-0.312012;0.872559
32.927910;-0.383545;-0.309814;0.876709
32.928139;-0.387207;-0.306152;0.870117
32.928226;-0.387451;-0.312012;0.869141
33.024986;-0.387939;-0.315186;0.868408
33.025135;-0.388428;-0.307617;0.867920
33.025230;-0.390869;-0.309326;0.870361
33.025314;-0.391357;-0.315430;0.868896
33.122864;-0.392334;-0.315674;0.866943
33.123001;-0.388672;-0.309082;0.869141
33.123093;-0.392578;-0.306641;0.875000
33.123177;-0.390869;-0.302002;0.875732
33.318100;-0.388428;-0.307617;0.867432
33.318226;-0.385254;-0.312500;0.868164
33.318317;-0.388916;-0.306885;0.866943
33.318405;-0.384766;-0.302979;0.868652
33.414993;-0.385742;-0.304688;0.869873
33.415138;-0.390381;-0.307617;0.873291
33.415234;-0.393555;-0.302002;0.871094
33.415318;-0.396484;-0.302979;0.873291
33.512779;-0.394287;-0.308594;0.875977
33.512917;-0.392578;-0.302734;0.872070
33.513012;-0.387451;-0.296631;0.870605
33.513100;-0.385254;-0.302734;0.871582
34.098358;-0.381104;-0.308350;0.869385
34.098503;-0.388672;-0.307861;0.871338
34.098598;-0.395020;-0.301758;0.875000
34.098690;-0.390869;-0.301025;0.870605
34.099873;-0.390137;-0.301758;0.874268
34.099972;-0.390381;-0.303955;0.872559
34.100399;-0.394531;-0.304443;0.866699
34.100502;-0.396484;-0.303223;0.867676
34.195404;-0.394531;-0.302002;0.870605
34.195545;-0.395752;-0.303955;0.872070
34.195641;-0.396973;-0.303711;0.873779
34.195724;-0.393555;-0.311279;0.867676
34.292767;-0.391846;-0.313477;0.870117
34.292912;-0.391357;-0.310059;0.872803
34.293148;-0.387695;-0.306885;0.871582
34.293240;-0.389893;-0.308594;0.873779
34.295071;-0.386230;-0.308105;0.869873
34.295177;-0.385742;-0.304932;0.867920
34.295265;-0.389160;-0.306396;0.875244
34.295475;-0.389648;-0.306641;0.871582
34.295559;-0.393799;-0.307617;0.867920
34.295643;-0.392334;-0.299316;0.871338
34.295727;-0.388916;-0.300049;0.874023
34.295811;-0.389404;-0.301270;0.873291
34.390743;-0.390625;-0.302246;0.865723
34.390839;-0.392822;-0.307373;0.865967
34.390926;-0.390381;-0.305908;0.868652
34.391010;-0.396240;-0.303223;0.870117
34.974716;-0.398682;-0.306396;0.872803
34.974777;-0.396484;-0.304443;0.875977
34.974819;-0.393311;-0.308838;0.871826
34.974857;-0.390625;-0.305420;0.871094
34.976025;-0.383057;-0.305908;0.868896
34.976070;-0.387207;-0.304688;0.871826
34.976101;-0.394287;-0.303223;0.873535
34.976128;-0.396240;-0.299316;0.868896
35.072483;-0.389893;-0.302002;0.870605
35.072544;-0.394043;-0.303955;0.874512
35.072586;-0.392578;-0.301758;0.871582
35.072624;-0.388916;-0.304443;0.869385
35.170055;-0.389893;-0.304199;0.869141
35.170132;-0.393799;-0.306152;0.869629
35.170174;-0.394775;-0.299805;0.871338
35.170212;-0.393799;-0.304443;0.871582
35.266895;-0.394043;-0.313232;0.868408
35.266979;-0.391846;-0.311035;0.867676
35.267021;-0.391602;-0.304443;0.873047
35.267059;-0.387451;-0.302979;0.877686
35.268372;-0.386475;-0.301270;0.870605
35.268433;-0.392822;-0.306885;0.869385
35.268475;-0.393066;-0.311035;0.870605
35.268513;-0.390869;-0.304443;0.870361
35.269936;-0.395264;-0.301025;0.873047
35.270000;-0.392334;-0.301025;0.872070
35.270042;-0.395264;-0.309082;0.872070
35.270077;-0.388916;-0.310303;0.864990
35.463116;-0.388184;-0.308105;0.868164
35.463268;-0.394531;-0.303711;0.875000
35.463364;-0.390625;-0.302734;0.868164
35.463455;-0.392090;-0.303467;0.871338
35.560326;-0.392578;-0.309082;0.870117
35.560448;-0.388672;-0.308350;0.868164
35.560535;-0.394043;-0.310547;0.872803
35.560623;-0.392334;-0.300781;0.872803
35.755322;-0.391357;-0.300293;0.870361
35.755531;-0.394531;-0.302002;0.871582
35.755627;-0.391602;-0.311523;0.866455
35.755714;-0.389404;-0.309326;0.871582
35.852707;-0.392090;-0.300293;0.874756
35.853348;-0.397461;-0.294434;0.873291
35.853447;-0.396484;-0.294922;0.872559
35.853535;-0.391846;-0.303955;0.873535
35.950356;-0.387207;-0.309082;0.873291
35.950497;-0.393066;-0.303955;0.870605
35.950592;-0.395996;-0.296143;0.872070
35.950680;-0.391602;-0.288818;0.869141
36.047413;-0.387451;-0.303711;0.870117
36.047558;-0.384033;-0.319580;0.870361
36.047741;-0.390137;-0.299805;0.874268
36.047829;-0.393799;-0.286621;0.877197
36.145370;-0.398682;-0.288818;0.882080
36.145493;-0.390381;-0.303223;0.871826
36.145580;-0.393066;-0.304199;0.872314
36.145664;-0.395020;-0.295898;0.873291
36.340405;-0.392090;-0.292725;0.870850
36.340542;-0.390625;-0.302002;0.870117
36.340633;-0.390381;-0.300293;0.876221
36.340740;-0.395020;-0.293457;0.875488
36.460831;-0.393311;-0.291748;0.874023
36.460934;-0.392090;-0.291992;0.874023
36.460995;-0.389893;-0.302002;0.874023
36.461056;-0.393066;-0.304688;0.867920
36.536129;-0.395508;-0.298340;0.871582
36.536762;-0.392822;-0.300293;0.874268
36.536858;-0.392090;-0.299072;0.871826
36.536942;-0.393555;-0.300049;0.872070
37.120682;-0.390869;-0.301025;0.871826
37.120815;-0.391113;-0.299561;0.873047
37.120911;-0.390137;-0.302979;0.874512
37.120998;-0.392822;-0.298828;0.871338
37.217876;-0.395996;-0.296875;0.872559
37.220154;-0.396973;-0.295654;0.873047
37.220284;-0.394287;-0.301025;0.871338
37.220375;-0.389893;-0.300049;0.868408
37.315964;-0.393555;-0.304199;0.871338
37.316078;-0.395020;-0.302734;0.872559
37.316166;-0.389648;-0.296875;0.870850
37.316250;-0.392334;-0.297119;0.873779
37.412491;-0.397217;-0.301758;0.874512
37.412636;-0.396973;-0.302002;0.865479
37.412731;-0.393311;-0.301758;0.872559
37.412815;-0.389893;-0.302246;0.873291
37.510498;-0.392090;-0.302979;0.870361
37.510616;-0.395264;-0.303955;0.871582
37.510712;-0.391357;-0.308350;0.868652
37.510811;-0.390137;-0.307861;0.870117
37.607414;-0.396240;-0.307373;0.870605
37.607555;-0.395996;-0.298584;0.869385
37.607651;-0.396973;-0.301758;0.872070
37.607735;-0.392334;-0.300293;0.871094
37.803898;-0.392090;-0.308350;0.868652
37.804028;-0.391846;-0.309814;0.868408
37.804123;-0.389404;-0.308594;0.867188
37.804211;-0.396240;-0.305176;0.872803
37.805218;-0.392334;-0.305908;0.867676
37.805302;-0.392334;-0.306641;0.868408
37.805382;-0.394775;-0.305908;0.870361
37.805473;-0.390381;-0.303711;0.868164
37.905006;-0.392822;-0.304688;0.866943
37.905132;-0.393799;-0.305908;0.871826
37.905228;-0.392822;-0.306641;0.873535
37.905312;-0.392334;-0.302246;0.871826
37.907852;-0.393799;-0.305420;0.868652
37.908001;-0.392334;-0.312012;0.867920
37.908077;-0.392090;-0.311523;0.866943
37.908157;-0.390869;-0.307861;0.869629
37.997562;-0.392578;-0.300781;0.869629
37.997711;-0.396240;-0.301758;0.872559
37.997803;-0.391602;-0.309570;0.868408
37.997982;-0.392334;-0.311768;0.870850
38.095181;-0.389648;-0.308350;0.868164
38.095325;-0.395996;-0.308350;0.866455
38.095421;-0.395264;-0.305176;0.869873
38.095505;-0.393555;-0.308350;0.869873
38.192589;-0.390869;-0.318115;0.868408
38.192738;-0.393555;-0.317139;0.867920
38.192829;-0.393066;-0.307861;0.866211
38.192917;-0.391602;-0.307129;0.872070
38.387413;-0.390625;-0.311523;0.873047
38.387554;-0.392334;-0.312988;0.865723
38.387646;-0.392334;-0.308594;0.865723
38.387733;-0.391357;-0.309570;0.872070
38.485905;-0.397705;-0.311523;0.871582
38.486038;-0.394043;-0.307129;0.865723
38.486820;-0.391846;-0.311035;0.867676
38.486919;-0.391113;-0.315430;0.870850
38.680180;-0.387207;-0.307373;0.867432
38.680328;-0.391846;-0.306152;0.869141
38.680424;-0.393311;-0.309570;0.868408
38.680508;-0.393311;-0.307617;0.864014
38.779057;-0.392578;-0.310547;0.871826
38.779171;-0.396240;-0.317627;0.876465
38.779263;-0.388428;-0.305176;0.868896
38.779346;-0.391602;-0.308350;0.866943
38.875046;-0.394775;-0.316162;0.865967
38.875187;-0.391602;-0.314941;0.868652
38.875278;-0.393311;-0.308105;0.872070
38.875362;-0.393066;-0.305908;0.869141
38.973385;-0.394775;-0.310547;0.866699
38.973503;-0.390137;-0.310547;0.868896
38.973595;-0.393066;-0.306396;0.871094
38.973682;-0.390137;-0.310303;0.871094
39.070438;-0.389404;-0.314941;0.864990
39.070580;-0.389160;-0.310059;0.870117
39.070671;-0.397217;-0.304199;0.871338
39.070759;-0.393066;-0.303223;0.869385
39.265266;-0.390137;-0.304932;0.872314
39.265419;-0.390381;-0.311035;0.869873
39.265514;-0.392090;-0.309570;0.865234
39.265598;-0.393066;-0.312744;0.864258
39.363243;-0.390625;-0.306152;0.869141
39.363354;-0.394531;-0.306396;0.870361
39.363441;-0.394531;-0.306885;0.871582
39.363525;-0.393311;-0.312500;0.868896
39.460110;-0.393066;-0.314941;0.869385
39.460255;-0.392578;-0.316406;0.869873
39.460346;-0.390625;-0.305420;0.865234
39.460434;-0.392334;-0.307129;0.872070
39.558239;-0.394531;-0.312500;0.872314
39.558357;-0.393555;-0.309814;0.863770
39.558449;-0.395508;-0.308838;0.866699
39.558537;-0.392822;-0.312988;0.872559
40.143532;-0.388672;-0.304688;0.872803
40.143688;-0.390381;-0.306641;0.869629
40.143784;-0.398438;-0.311279;0.863770
40.143871;-0.395020;-0.315674;0.862793
40.145748;-0.395752;-0.314941;0.864502
40.145855;-0.396484;-0.315918;0.864990
40.145939;-0.389160;-0.314453;0.866211
40.146023;-0.392090;-0.313232;0.870850
40.241123;-0.398438;-0.303223;0.872070
40.241600;-0.396240;-0.303955;0.871826
40.241695;-0.392578;-0.306396;0.868652
40.241779;-0.394775;-0.311035;0.866455
40.243721;-0.392090;-0.309082;0.866943
40.243820;-0.394043;-0.302490;0.870117
40.243904;-0.398438;-0.304199;0.871582
40.243992;-0.395020;-0.308105;0.868164
40.338810;-0.393799;-0.317139;0.866211
40.338936;-0.390869;-0.318604;0.862793
40.339027;-0.387695;-0.321777;0.869873
40.339111;-0.391602;-0.319336;0.868164
40.340061;-0.398438;-0.315186;0.865967
40.340164;-0.395752;-0.301758;0.878662
40.340248;-0.390137;-0.297363;0.876953
40.340332;-0.390869;-0.303955;0.872559
40.925159;-0.391113;-0.317139;0.865234
40.925301;-0.389404;-0.316650;0.859863
40.925396;-0.390625;-0.306641;0.857666
40.926056;-0.397461;-0.289307;0.871582
40.927177;-0.395508;-0.291748;0.878418
40.927284;-0.399902;-0.301758;0.877197
40.927368;-0.405029;-0.313721;0.865234
40.927452;-0.402588;-0.322021;0.860352
41.021339;-0.395752;-0.321777;0.864258
41.021458;-0.389160;-0.315674;0.872559
41.021561;-0.390869;-0.307129;0.876221
41.021648;-0.389893;-0.297852;0.870361
41.118355;-0.386475;-0.306396;0.869385
41.118473;-0.391846;-0.313721;0.872314
41.119480;-0.387207;-0.304199;0.868408
41.119572;-0.394043;-0.299316;0.867920
41.215710;-0.399414;-0.295410;0.873291
41.215832;-0.397217;-0.289795;0.873535
41.215923;-0.397461;-0.300049;0.872314
41.216007;-0.393311;-0.309082;0.867920
41.313419;-0.394775;-0.312988;0.865234
41.313568;-0.394287;-0.307617;0.868896
41.313663;-0.397705;-0.304932;0.873779
41.313751;-0.395020;-0.304443;0.875244
41.315411;-0.389160;-0.312256;0.866211
41.315514;-0.385742;-0.315674;0.864502
41.316071;-0.383301;-0.315186;0.865479
41.316174;-0.395264;-0.309326;0.869141
41.410156;-0.404297;-0.302734;0.871582
41.410305;-0.401367;-0.305420;0.870361
41.410397;-0.393555;-0.307861;0.871826
41.410480;-0.388184;-0.310791;0.870117
41.606079;-0.387207;-0.317383;0.870117
41.606220;-0.391602;-0.309082;0.865967
41.606316;-0.389404;-0.308838;0.867188
41.606422;-0.390137;-0.312500;0.866699
41.608250;-0.393799;-0.315918;0.867676
41.608337;-0.401855;-0.310303;0.872803
41.608421;-0.396729;-0.300781;0.871094
41.608501;-0.394043;-0.299805;0.875488
41.704025;-0.390869;-0.301025;0.874023
41.704144;-0.387207;-0.304688;0.868408
41.704235;-0.389160;-0.312012;0.871094
41.704319;-0.392578;-0.304199;0.872314
42.289192;-0.397217;-0.298584;0.864746
42.289337;-0.395264;-0.304932;0.867920
42.289429;-0.391846;-0.313232;0.870850
42.289516;-0.383301;-0.316162;0.870117
42.290512;-0.395264;-0.310791;0.869141
42.290600;-0.403564;-0.306152;0.874512
42.290680;-0.399902;-0.294189;0.874268
42.290756;-0.397705;-0.294189;0.871826
42.387348;-0.388184;-0.307617;0.866455
42.387482;-0.382080;-0.325195;0.867676
42.387573;-0.380615;-0.316406;0.858154
42.387661;-0.396240;-0.314209;0.865967
42.389057;-0.396729;-0.286377;0.879395
42.389153;-0.398193;-0.291260;0.877686
42.389236;-0.397705;-0.303223;0.872559
42.389320;-0.397949;-0.316162;0.862793
42.483185;-0.395020;-0.322266;0.859863
42.483662;-0.396240;-0.312012;0.866211
42.483757;-0.397461;-0.299072;0.872070
42.483845;-0.399170;-0.298828;0.873047
42.484959;-0.395752;-0.306396;0.868652
42.485065;-0.396484;-0.315430;0.863037
42.485153;-0.390137;-0.317871;0.863281
42.485237;-0.392334;-0.317139;0.866455
43.068630;-0.392090;-0.308594;0.866211
43.069191;-0.399902;-0.304688;0.870605
43.069294;-0.402588;-0.298096;0.872559
43.069382;-0.397949;-0.300537;0.869873
43.070992;-0.396240;-0.308838;0.867920
43.071098;-0.394043;-0.310547;0.861084
43.071182;-0.392578;-0.310791;0.862061
43.071262;-0.396484;-0.302246;0.875244
43.165691;-0.400635;-0.293701;0.873535
43.165840;-0.404053;-0.294434;0.867676
43.165936;-0.397705;-0.306641;0.859863
43.166023;-0.383301;-0.321045;0.866699
43.263485;-0.385498;-0.322510;0.872070
43.263626;-0.398438;-0.308594;0.869385
43.263721;-0.403809;-0.297363;0.870850
43.263809;-0.402100;-0.293945;0.878418
43.360477;-0.395020;-0.302979;0.870605
43.360619;-0.388428;-0.310303;0.871338
43.360714;-0.388672;-0.309082;0.874512
43.360870;-0.385498;-0.296631;0.869385
43.361801;-0.392334;-0.295898;0.872559
43.361908;-0.400879;-0.293701;0.875000
43.361992;-0.403076;-0.288330;0.871094
43.362076;-0.398438;-0.294678;0.870117
43.458466;-0.399414;-0.297363;0.869141
43.458584;-0.404785;-0.296143;0.871582
43.458675;-0.401367;-0.299072;0.871094
43.458759;-0.396973;-0.302734;0.868896
43.555389;-0.393311;-0.305176;0.869385
43.555523;-0.389160;-0.306885;0.867432
43.555618;-0.389160;-0.302734;0.871582
43.555702;-0.393555;-0.300537;0.876709
43.656418;-0.398682;-0.298584;0.870605
43.656555;-0.399170;-0.299072;0.869141
43.656651;-0.404297;-0.298584;0.868164
43.656734;-0.394531;-0.294434;0.867920
43.750660;-0.397949;-0.289062;0.870850
43.750778;-0.396973;-0.289795;0.872559
43.750870;-0.396240;-0.296631;0.872070
43.750954;-0.395020;-0.305176;0.871338
43.848358;-0.401123;-0.301025;0.872070
43.848476;-0.401367;-0.303711;0.865479
43.848568;-0.396729;-0.314697;0.862061
43.848736;-0.393799;-0.317871;0.870117
44.140636;-0.395752;-0.306396;0.875000
44.140785;-0.401367;-0.288086;0.872803
44.140884;-0.402100;-0.292969;0.869873
44.140984;-0.393555;-0.312744;0.874268
44.239437;-0.384766;-0.312988;0.867920
44.239586;-0.393066;-0.300537;0.867676
44.239677;-0.399658;-0.290527;0.872803
44.239761;-0.403564;-0.288818;0.871094
44.239845;-0.399170;-0.298096;0.871826
44.239933;-0.398438;-0.306152;0.872314
44.240017;-0.398682;-0.316406;0.860840
44.240101;-0.392578;-0.313965;0.859863
44.432777;-0.395508;-0.309082;0.870361
44.432926;-0.397461;-0.306152;0.873047
44.433022;-0.399902;-0.297119;0.873047
44.433109;-0.395752;-0.295410;0.868896
44.531002;-0.397705;-0.306152;0.868896
44.531116;-0.392822;-0.304199;0.869385
44.531204;-0.394531;-0.302734;0.865967
44.531296;-0.392090;-0.308105;0.868408
44.627640;-0.400391;-0.302246;0.873291
44.627781;-0.403809;-0.301270;0.874268
44.627872;-0.404541;-0.295166;0.868896
44.627956;-0.394531;-0.306396;0.860352
44.725777;-0.389404;-0.317871;0.866699
44.725899;-0.386475;-0.322754;0.869385
44.725990;-0.390869;-0.309082;0.870361
44.726074;-0.398926;-0.300537;0.876465
45.310802;-0.397217;-0.291016;0.872314
45.311337;-0.394287;-0.304443;0.877197
45.311455;-0.396484;-0.304443;0.868652
45.311546;-0.394043;-0.300293;0.857422
45.312672;-0.396729;-0.305664;0.875244
45.312775;-0.404297;-0.294434;0.880127
45.312859;-0.397461;-0.295654;0.862793
45.312943;-0.398926;-0.318359;0.868652
45.410320;-0.396240;-0.316162;0.861084
45.410439;-0.391357;-0.310547;0.864502
45.410530;-0.405029;-0.303711;0.881592
45.410618;-0.403320;-0.284912;0.873047
45.411835;-0.397461;-0.294434;0.875244
45.411926;-0.382568;-0.303955;0.883301
45.412014;-0.387695;-0.305420;0.869385
45.412094;-0.392334;-0.309814;0.857422
45.505627;-0.391602;-0.302246;0.870117
45.506104;-0.392822;-0.295898;0.877930
45.506210;-0.392578;-0.293945;0.877930
45.506298;-0.399902;-0.287109;0.884033
45.507454;-0.410156;-0.287598;0.871094
45.507557;-0.399902;-0.308838;0.860840
45.507641;-0.377686;-0.320801;0.864746
45.507725;-0.380859;-0.302490;0.875488
45.700111;-0.396240;-0.289062;0.875977
45.700264;-0.395752;-0.286621;0.878662
45.700493;-0.391846;-0.284180;0.888184
45.700584;-0.396729;-0.300537;0.883301
45.799168;-0.398926;-0.303955;0.853271
45.799313;-0.393555;-0.316406;0.852295
45.799404;-0.386230;-0.319580;0.870361
45.799492;-0.393555;-0.313965;0.863281
45.992928;-0.396973;-0.302734;0.862793
45.993088;-0.399902;-0.309570;0.869385
45.993183;-0.393311;-0.300781;0.878662
45.993286;-0.391357;-0.317383;0.869629
45.994354;-0.386963;-0.328125;0.858154
45.994450;-0.390137;-0.338867;0.852295
45.994530;-0.392334;-0.326172;0.862549
45.995018;-0.392578;-0.303223;0.870605
46.187984;-0.399902;-0.295410;0.877930
46.188129;-0.400879;-0.286621;0.883301
46.188221;-0.392822;-0.305420;0.866943
46.188309;-0.394043;-0.322021;0.863525
46.285461;-0.401367;-0.323486;0.856934
46.285599;-0.392822;-0.315674;0.860352
46.285690;-0.393066;-0.305908;0.873779
46.285793;-0.396973;-0.295898;0.869873
46.382660;-0.403809;-0.295898;0.871582
46.382797;-0.403320;-0.300049;0.872559
46.382889;-0.393066;-0.308350;0.866943
46.382977;-0.387695;-0.317139;0.868896
46.577606;-0.393311;-0.303711;0.863281
46.577747;-0.394775;-0.305420;0.857910
46.577843;-0.401123;-0.302002;0.871338
46.577927;-0.407959;-0.292969;0.881836
46.675610;-0.402588;-0.302246;0.872070
46.675747;-0.389404;-0.315430;0.864258
46.675842;-0.386475;-0.319336;0.869873
46.676079;-0.391357;-0.300049;0.868408
46.872257;-0.398438;-0.300293;0.875488
46.872391;-0.394531;-0.307373;0.871338
46.872482;-0.378418;-0.312500;0.860840
46.872566;-0.393799;-0.320068;0.865723
46.874233;-0.396240;-0.313721;0.866455
46.874321;-0.398682;-0.313232;0.868164
46.874405;-0.393066;-0.304688;0.866943
46.874485;-0.395508;-0.299316;0.867432
47.065468;-0.401611;-0.300049;0.870117
47.065605;-0.404053;-0.298096;0.868408
47.065697;-0.401123;-0.306396;0.869141
47.065784;-0.397217;-0.304688;0.867676
47.162708;-0.396973;-0.297119;0.864746
47.162857;-0.395752;-0.303467;0.875000
47.162952;-0.395752;-0.302734;0.878174
47.163040;-0.398193;-0.298340;0.869629
47.260475;-0.399902;-0.299805;0.867188
47.260612;-0.395996;-0.297607;0.869141
47.260704;-0.394287;-0.304688;0.869873
47.260792;-0.395996;-0.301514;0.867188
47.846298;-0.395752;-0.296387;0.860596
47.846779;-0.400879;-0.303467;0.868652
47.846889;-0.402832;-0.293701;0.875488
47.846977;-0.402344;-0.292480;0.864990
47.848518;-0.403809;-0.298584;0.873779
47.848629;-0.403320;-0.307129;0.869141
47.848717;-0.395264;-0.297607;0.862061
47.848801;-0.394287;-0.298096;0.870361
47.943584;-0.395752;-0.292725;0.875000
47.943733;-0.395508;-0.296143;0.870117
47.944157;-0.397461;-0.300049;0.865967
47.944244;-0.396973;-0.297119;0.864990
47.945889;-0.398926;-0.298828;0.870850
47.945995;-0.399658;-0.298096;0.873047
47.946083;-0.407715;-0.299316;0.871582
47.946167;-0.405518;-0.297607;0.865723
48.039436;-0.401367;-0.295410;0.868408
48.039921;-0.396240;-0.300781;0.875000
48.040020;-0.398438;-0.301270;0.874512
48.040104;-0.400146;-0.301025;0.868896
48.041073;-0.394043;-0.302490;0.869385
48.041180;-0.396484;-0.298340;0.870850
48.041264;-0.393311;-0.291260;0.868896
48.041348;-0.400879;-0.293945;0.874512
48.138588;-0.399170;-0.293457;0.874268
48.138683;-0.397217;-0.286865;0.871094
48.138767;-0.399414;-0.299072;0.871582
48.138851;-0.393311;-0.303467;0.865234
48.333252;-0.395996;-0.303711;0.871338
48.333370;-0.397705;-0.302734;0.876221
48.333462;-0.397949;-0.297852;0.869873
48.333549;-0.403320;-0.297607;0.870605
48.430241;-0.399658;-0.300537;0.871338
48.430393;-0.396484;-0.295654;0.871094
48.430485;-0.394775;-0.302490;0.869873
48.430569;-0.398193;-0.299805;0.870117
48.528202;-0.399658;-0.300293;0.868408
48.528324;-0.398926;-0.301758;0.870361
48.528416;-0.404541;-0.306641;0.865723
48.528500;-0.402344;-0.302246;0.866455
48.722401;-0.401367;-0.298096;0.871826
48.722546;-0.390381;-0.310059;0.877441
48.722637;-0.391113;-0.308838;0.868896
48.722725;-0.390869;-0.292725;0.866455
48.821117;-0.392334;-0.297852;0.880371
48.821251;-0.392334;-0.302734;0.872070
48.821342;-0.390137;-0.302979;0.864258
48.821430;-0.393799;-0.302979;0.870850
48.919479;-0.393066;-0.296875;0.869873
48.920689;-0.397705;-0.295410;0.874023
48.920780;-0.403809;-0.287842;0.873535
48.920864;-0.401855;-0.298584;0.869629
49.015293;-0.395996;-0.298584;0.868408
49.015438;-0.395508;-0.302979;0.863770
49.015533;-0.396484;-0.307617;0.868164
49.015617;-0.406494;-0.300781;0.874756
49.209511;-0.397705;-0.305176;0.865967
49.209560;-0.389893;-0.307617;0.863770
49.209579;-0.396484;-0.310547;0.872803
49.209602;-0.394043;-0.313477;0.879395
49.307579;-0.390137;-0.314697;0.875488
49.307640;-0.391846;-0.309326;0.865723
49.307682;-0.393799;-0.305908;0.865723
49.307720;-0.399414;-0.304443;0.878906
49.408009;-0.380859;-0.301270;0.868408
49.408146;-0.374268;-0.323242;0.860840
49.408241;-0.392822;-0.312500;0.879639
49.408329;-0.391602;-0.307861;0.877930
49.600182;-0.393066;-0.310059;0.865723
49.600323;-0.385498;-0.312744;0.867676
49.600418;-0.392334;-0.325439;0.876953
49.600967;-0.387939;-0.320557;0.867920
49.698608;-0.381592;-0.300293;0.858887
49.698750;-0.399658;-0.297363;0.869873
49.698845;-0.410400;-0.299561;0.870850
49.698929;-0.398926;-0.304688;0.862305
49.795265;-0.402344;-0.309570;0.871826
49.795414;-0.405762;-0.308838;0.873779
49.795506;-0.388672;-0.298828;0.857666
49.795593;-0.383057;-0.312988;0.866943
49.990303;-0.392334;-0.321533;0.879883
49.990566;-0.396973;-0.304932;0.864746
49.990662;-0.393555;-0.300293;0.865479
49.990746;-0.374268;-0.304199;0.874023
50.088627;-0.380859;-0.314209;0.879639
50.088760;-0.385986;-0.314209;0.874756
50.088852;-0.378174;-0.327393;0.868652
50.088936;-0.374756;-0.330811;0.865479
50.185402;-0.377930;-0.334961;0.878418
50.185551;-0.370605;-0.326172;0.868164
50.185646;-0.367432;-0.297607;0.855713
50.185730;-0.377686;-0.316650;0.864014
50.380245;-0.385010;-0.336670;0.885498
50.380390;-0.376953;-0.338135;0.885742
50.380482;-0.392578;-0.321533;0.854248
50.380569;-0.409668;-0.312988;0.834717
50.478630;-0.395508;-0.310547;0.857178
50.478771;-0.380859;-0.332031;0.882812
50.478870;-0.373291;-0.320312;0.880127
50.478962;-0.377197;-0.325439;0.869141
50.575294;-0.379395;-0.320312;0.856934
50.575439;-0.388184;-0.332520;0.864014
50.575535;-0.388672;-0.321289;0.863037
50.575619;-0.379883;-0.312256;0.860352
50.673206;-0.389648;-0.304443;0.857666
50.673328;-0.392822;-0.312744;0.872070
50.673416;-0.388428;-0.301025;0.884033
50.673504;-0.390137;-0.319092;0.887207
51.258373;-0.384033;-0.331299;0.882080
51.258877;-0.366943;-0.326172;0.866211
51.258976;-0.364014;-0.339600;0.855957
51.259064;-0.363525;-0.326660;0.869385
51.260296;-0.373779;-0.332764;0.880127
51.260399;-0.357666;-0.319092;0.883789
51.260483;-0.365723;-0.310059;0.877686
51.260567;-0.385742;-0.303955;0.872803
51.355492;-0.392334;-0.305176;0.870850
51.355618;-0.382324;-0.310303;0.874512
51.356045;-0.368408;-0.307617;0.879639
51.356140;-0.382812;-0.303711;0.878418
51.357948;-0.390625;-0.301758;0.867676
51.358032;-0.399902;-0.297607;0.866699
51.358116;-0.387207;-0.295166;0.866943
51.358196;-0.381836;-0.300293;0.874756
51.452614;-0.388184;-0.306641;0.880615
51.452763;-0.389893;-0.300781;0.885986
51.455029;-0.390381;-0.292236;0.882080
51.455128;-0.395020;-0.291748;0.872803
51.551903;-0.397949;-0.299805;0.864746
51.552044;-0.392090;-0.296143;0.866943
51.552135;-0.401367;-0.286377;0.878662
51.552223;-0.401611;-0.281250;0.879883
51.554398;-0.401367;-0.278564;0.878418
51.554729;-0.402100;-0.286621;0.876709
51.554829;-0.399902;-0.295898;0.872559
51.554913;-0.393066;-0.298584;0.865723
51.843121;-0.391602;-0.295166;0.869629
51.843281;-0.393311;-0.286133;0.873535
51.843376;-0.394531;-0.285400;0.875488
51.843464;-0.399902;-0.287842;0.874023
51.844727;-0.402100;-0.288818;0.878906
51.844826;-0.391602;-0.293945;0.870361
51.845043;-0.394043;-0.298096;0.870850
51.845131;-0.391357;-0.298584;0.877197
52.039429;-0.389893;-0.291260;0.875000
52.039558;-0.390869;-0.296387;0.875000
52.039654;-0.388916;-0.303467;0.871338
52.039738;-0.387695;-0.298584;0.868652
52.039841;-0.391602;-0.298340;0.874512
52.039925;-0.388916;-0.289062;0.881104
52.040009;-0.393799;-0.290283;0.877197
52.040089;-0.394043;-0.293213;0.873047
52.623302;-0.392090;-0.300049;0.878906
52.623604;-0.390625;-0.296387;0.875244
52.623707;-0.393799;-0.293213;0.872803
52.623791;-0.392334;-0.290527;0.871826
52.721409;-0.389404;-0.292236;0.873291
52.721550;-0.388428;-0.292236;0.878174
52.721645;-0.390869;-0.298340;0.876709
52.721729;-0.394043;-0.292480;0.874023
52.723007;-0.391602;-0.299805;0.874268
52.723106;-0.389648;-0.298340;0.875000
52.723190;-0.389160;-0.295410;0.877441
52.723274;-0.392822;-0.294189;0.876709
52.818584;-0.388916;-0.296387;0.875732
52.818726;-0.390137;-0.295898;0.875000
52.818817;-0.391357;-0.294434;0.876709
52.819050;-0.395508;-0.294434;0.874512
52.822117;-0.390869;-0.297119;0.870850
52.822201;-0.391846;-0.302979;0.872070
52.822285;-0.393311;-0.298584;0.874023
52.822365;-0.392578;-0.289551;0.874023
52.823288;-0.393555;-0.296875;0.874756
52.823387;-0.391602;-0.297852;0.871582
52.823475;-0.391602;-0.300537;0.874756
52.823559;-0.389160;-0.297607;0.873779
53.012737;-0.390625;-0.296387;0.874756
53.012878;-0.390625;-0.294922;0.876465
53.013107;-0.390625;-0.289307;0.874023
53.013309;-0.390137;-0.302002;0.875000
53.110527;-0.390137;-0.301025;0.874023
53.110649;-0.392578;-0.298584;0.872070
53.110737;-0.393311;-0.296143;0.872559
53.110825;-0.390869;-0.292969;0.875732
53.208157;-0.391846;-0.298096;0.875977
53.208302;-0.393555;-0.303223;0.872314
53.208397;-0.391846;-0.300293;0.873047
53.208481;-0.390625;-0.298096;0.870850
53.407890;-0.393311;-0.295166;0.875000
53.408031;-0.393799;-0.294922;0.873291
53.408131;-0.390869;-0.298584;0.870605
53.408218;-0.393799;-0.303467;0.874023
53.500702;-0.391846;-0.298828;0.876709
53.500839;-0.389160;-0.295410;0.874756
53.500935;-0.393799;-0.296875;0.872314
53.501022;-0.393311;-0.294678;0.873047
53.696301;-0.389160;-0.296143;0.875488
53.696457;-0.391846;-0.297119;0.873535
53.696552;-0.394287;-0.300537;0.871826
53.696640;-0.395996;-0.296631;0.872070
53.697784;-0.391113;-0.291992;0.874023
53.697887;-0.388916;-0.297607;0.875488
53.697971;-0.390625;-0.299072;0.876709
53.698051;-0.391602;-0.299316;0.869141
54.281525;-0.392822;-0.298828;0.872070
54.281982;-0.391357;-0.296387;0.876709
54.282082;-0.392822;-0.295410;0.874023
54.282684;-0.392578;-0.299072;0.873779
54.284206;-0.393311;-0.302246;0.872559
54.284313;-0.393555;-0.297607;0.872559
54.284401;-0.392578;-0.292969;0.874023
54.284481;-0.394043;-0.297119;0.874756
54.377815;-0.391357;-0.300049;0.872070
54.377956;-0.394043;-0.299561;0.872070
54.378048;-0.388916;-0.294922;0.877197
54.378132;-0.392822;-0.298096;0.877686
54.478092;-0.392090;-0.302246;0.870850
54.478207;-0.391602;-0.299805;0.868896
54.478298;-0.391846;-0.296387;0.877686
54.478382;-0.390625;-0.295898;0.877197
54.478558;-0.393066;-0.298828;0.871338
54.478642;-0.394775;-0.298340;0.868652
54.478722;-0.391113;-0.293213;0.873779
54.478806;-0.390625;-0.293457;0.878662
54.572723;-0.391846;-0.298828;0.875244
54.572865;-0.392334;-0.299561;0.870605
54.573311;-0.393311;-0.297852;0.870605
54.573402;-0.392090;-0.295166;0.875732
54.574368;-0.393555;-0.298096;0.874756
54.574474;-0.392334;-0.294434;0.874268
54.574570;-0.393311;-0.300049;0.872559
54.574654;-0.390869;-0.297852;0.874268
54.865906;-0.393555;-0.300049;0.873535
54.866383;-0.392090;-0.293701;0.874512
54.866482;-0.394043;-0.293945;0.875488
54.866566;-0.391602;-0.296631;0.872559
54.868095;-0.390137;-0.299072;0.874756
54.868187;-0.390137;-0.297363;0.875732
54.868263;-0.389404;-0.296875;0.875488
54.868340;-0.396240;-0.300049;0.875000
54.962864;-0.393066;-0.296875;0.869873
54.963013;-0.393311;-0.297852;0.871582
54.963108;-0.392090;-0.296631;0.877686
54.963192;-0.389893;-0.294922;0.875488
55.158184;-0.394043;-0.295898;0.872559
55.158321;-0.390381;-0.293213;0.876465
55.158421;-0.388428;-0.297119;0.875977
55.158508;-0.389160;-0.296875;0.876465
55.352745;-0.395996;-0.295898;0.873779
55.353676;-0.393066;-0.293945;0.874023
55.353775;-0.391602;-0.297607;0.873779
55.354259;-0.391357;-0.297852;0.874756
55.355572;-0.391846;-0.297363;0.874512
55.355675;-0.393311;-0.298340;0.871338
55.355759;-0.391602;-0.298096;0.872803
55.355839;-0.391846;-0.296387;0.876221
55.451511;-0.391846;-0.294922;0.875977
55.451637;-0.391846;-0.298584;0.875000
55.451866;-0.389648;-0.295166;0.871826
55.451958;-0.392822;-0.300781;0.873779
56.035263;-0.390625;-0.300781;0.872559
56.035358;-0.388916;-0.296875;0.875732
56.035419;-0.395264;-0.297363;0.872559
56.035477;-0.393799;-0.294678;0.871582
56.131481;-0.391846;-0.295166;0.875488
56.131687;-0.391357;-0.301025;0.877686
56.131748;-0.387939;-0.296143;0.869873
56.131805;-0.394043;-0.300293;0.874268
56.132908;-0.388916;-0.291992;0.875488
56.132980;-0.386475;-0.293945;0.877686
56.133034;-0.390625;-0.297852;0.877441
56.133091;-0.392090;-0.296875;0.874023
56.230381;-0.395508;-0.294922;0.872559
56.230530;-0.393066;-0.296631;0.873779
56.230621;-0.392578;-0.296631;0.874756
56.230713;-0.390381;-0.295654;0.874023
56.328308;-0.392334;-0.296387;0.875732
56.328430;-0.391357;-0.298340;0.873291
56.328663;-0.391846;-0.297363;0.871826
56.328754;-0.392578;-0.296631;0.874268
56.427746;-0.393066;-0.295898;0.873291
56.427853;-0.391357;-0.295166;0.875244
56.427937;-0.391357;-0.299316;0.871338
56.428017;-0.389404;-0.301270;0.871582
56.429134;-0.390869;-0.300049;0.874512
56.429241;-0.388428;-0.293457;0.877441
56.429325;-0.389404;-0.294434;0.877441
56.429413;-0.395508;-0.296387;0.870850
56.522919;-0.391113;-0.298340;0.868896
56.523067;-0.388916;-0.300293;0.875732
56.523159;-0.391602;-0.295410;0.876221
56.523247;-0.392578;-0.297119;0.873779
56.621635;-0.393799;-0.293213;0.874023
56.621769;-0.385742;-0.296143;0.876465
56.621864;-0.388916;-0.304199;0.878174
56.621948;-0.390625;-0.300781;0.871582
56.718056;-0.393066;-0.296143;0.872070
56.718216;-0.389648;-0.291504;0.876221
56.718311;-0.386475;-0.293945;0.877686
56.718395;-0.392578;-0.301025;0.874512
56.922733;-0.392334;-0.302490;0.870117
56.922840;-0.396973;-0.298340;0.869141
56.922901;-0.390625;-0.292725;0.873779
56.922977;-0.389404;-0.289062;0.880859
57.010353;-0.389893;-0.290283;0.877197
57.010498;-0.394531;-0.302490;0.871338
57.010586;-0.392334;-0.297607;0.873047
57.010666;-0.391357;-0.292725;0.875000
57.107765;-0.392090;-0.293213;0.875977
57.107948;-0.393066;-0.296631;0.873291
57.108047;-0.392578;-0.297852;0.872559
57.108131;-0.391602;-0.298096;0.874756
57.694000;-0.391357;-0.294678;0.873535
57.694157;-0.392334;-0.294678;0.872803
57.694252;-0.390625;-0.295898;0.877930
57.694336;-0.392822;-0.295898;0.875000
57.790691;-0.392822;-0.297363;0.872803
57.790840;-0.386963;-0.295166;0.875977
57.790936;-0.386475;-0.294189;0.879395
57.791019;-0.387695;-0.295410;0.878174
57.792355;-0.392334;-0.298096;0.872314
57.792458;-0.394531;-0.294434;0.871338
57.792542;-0.391113;-0.293701;0.875488
57.792625;-0.391846;-0.291992;0.875977
57.888893;-0.391846;-0.292480;0.875488
57.889023;-0.392334;-0.296631;0.874023
57.889114;-0.392090;-0.294922;0.872070
57.889198;-0.391357;-0.292480;0.875000
57.987003;-0.390137;-0.293457;0.875244
57.987164;-0.389893;-0.293457;0.874756
57.988461;-0.393799;-0.295898;0.870850
57.988556;-0.392090;-0.295654;0.872559
57.990070;-0.391357;-0.297363;0.875977
57.990177;-0.393066;-0.293457;0.875000
57.990261;-0.393555;-0.296143;0.875000
57.990341;-0.392090;-0.297363;0.875488
57.990425;-0.391846;-0.299072;0.877197
57.990509;-0.391602;-0.295898;0.875244
57.990589;-0.391602;-0.291260;0.873291
57.990673;-0.391113;-0.295898;0.878906
58.180347;-0.389404;-0.294678;0.877686
58.180489;-0.393066;-0.297119;0.869873
58.180584;-0.395020;-0.297852;0.869385
58.180672;-0.387939;-0.288574;0.875000
58.278606;-0.394043;-0.293213;0.880615
58.278702;-0.391602;-0.295654;0.877686
58.278790;-0.395996;-0.296143;0.870361
58.278873;-0.394043;-0.296631;0.872559
58.375378;-0.389404;-0.290283;0.877197
58.375519;-0.392090;-0.293213;0.877930
58.375610;-0.393066;-0.298096;0.871094
58.375698;-0.392578;-0.298584;0.870361
58.473965;-0.391113;-0.296143;0.875488
58.474060;-0.390137;-0.292236;0.875977
58.474148;-0.392578;-0.293457;0.875000
58.474232;-0.395264;-0.298584;0.873291
59.058868;-0.392822;-0.295898;0.874268
59.059029;-0.393311;-0.296387;0.876953
59.059143;-0.389648;-0.292969;0.875732
59.059231;-0.392334;-0.296631;0.873047
59.060371;-0.391357;-0.294434;0.876221
59.060474;-0.389404;-0.294922;0.877441
59.060558;-0.394775;-0.298096;0.870361
59.060642;-0.395752;-0.292969;0.871094
59.158524;-0.394775;-0.292480;0.874023
59.158642;-0.389893;-0.295898;0.876465
59.158733;-0.391357;-0.296143;0.873779
59.158821;-0.394531;-0.292480;0.875000
59.255974;-0.389160;-0.289795;0.874023
59.256111;-0.389404;-0.295410;0.878662
59.256222;-0.392334;-0.298096;0.879395
59.256310;-0.392090;-0.291748;0.870850
59.350624;-0.394043;-0.289795;0.873291
59.350758;-0.391357;-0.292236;0.878418
59.350941;-0.391846;-0.294434;0.875000
59.351028;-0.392578;-0.296875;0.872070
59.546780;-0.392578;-0.294189;0.871826
59.546944;-0.391357;-0.292236;0.875244
59.547035;-0.391113;-0.292969;0.876221
59.547123;-0.394043;-0.293701;0.879639
59.548958;-0.393311;-0.294922;0.870117
59.549053;-0.392090;-0.294678;0.873291
59.549137;-0.390869;-0.293701;0.876709
59.549221;-0.390869;-0.293457;0.873535
59.642525;-0.392822;-0.297363;0.873779
59.642666;-0.393799;-0.297119;0.874756
59.642757;-0.391357;-0.293213;0.876709
59.642841;-0.395264;-0.295898;0.874756
59.644394;-0.392090;-0.293213;0.870361
59.644550;-0.394043;-0.293701;0.877441
59.644642;-0.392090;-0.295898;0.877441
59.644726;-0.393311;-0.294189;0.874268
59.740459;-0.392334;-0.290527;0.875000
59.740608;-0.390625;-0.290771;0.878174
59.740700;-0.387939;-0.292725;0.876709
59.740788;-0.389404;-0.295654;0.876953
59.935623;-0.395264;-0.295410;0.873535
59.935776;-0.392090;-0.289795;0.874756
59.935867;-0.395020;-0.290771;0.877441
59.935951;-0.390625;-0.292725;0.875732
60.033157;-0.392578;-0.296143;0.874756
60.033295;-0.394531;-0.294922;0.874023
60.033386;-0.393555;-0.291504;0.875732
60.033470;-0.391357;-0.292480;0.877686
60.130856;-0.391602;-0.293945;0.875732
60.130974;-0.392822;-0.295410;0.872559
60.131065;-0.392822;-0.296143;0.872803
60.131149;-0.393311;-0.294434;0.876709
60.325394;-0.389404;-0.289307;0.875488
60.325539;-0.391846;-0.293701;0.875488
60.325634;-0.391846;-0.293945;0.874512
60.325718;-0.391113;-0.297607;0.876465
60.423519;-0.391846;-0.297852;0.875488
60.423660;-0.397217;-0.288330;0.873535
60.423756;-0.393555;-0.291260;0.875000
60.423840;-0.392334;-0.295410;0.878174
60.520897;-0.393311;-0.294189;0.874023
60.521042;-0.392822;-0.294678;0.872070
60.521133;-0.391846;-0.290039;0.874512
60.521629;-0.388916;-0.288330;0.879639
60.618370;-0.389404;-0.293457;0.877930
60.618492;-0.395264;-0.297119;0.872559
60.618584;-0.394287;-0.289551;0.871582
60.618668;-0.392090;-0.289307;0.877197
61.206459;-0.393066;-0.293213;0.879150
61.206600;-0.393066;-0.293213;0.874023
61.206696;-0.394531;-0.296631;0.873047
61.206779;-0.391357;-0.294922;0.870605
61.208370;-0.391113;-0.294189;0.875977
61.208752;-0.393799;-0.292969;0.880127
61.208858;-0.390625;-0.290283;0.877441
61.208942;-0.393311;-0.297363;0.872559
61.300701;-0.391602;-0.296143;0.875488
61.300835;-0.394531;-0.291748;0.872314
61.300926;-0.392334;-0.296143;0.875244
61.301014;-0.393311;-0.293945;0.876465
61.402451;-0.391846;-0.293213;0.875977
61.402588;-0.394043;-0.296875;0.875488
61.402687;-0.394531;-0.293213;0.872314
61.402779;-0.392334;-0.291260;0.873535
61.496544;-0.390625;-0.292725;0.876465
61.496830;-0.391357;-0.294189;0.874512
61.497768;-0.395996;-0.295166;0.873779
61.497871;-0.392578;-0.292236;0.871338
61.499302;-0.387207;-0.289062;0.875732
61.499393;-0.392822;-0.295410;0.880371
61.499470;-0.395752;-0.296387;0.871582
61.499546;-0.392822;-0.293457;0.871094
61.499714;-0.390869;-0.291016;0.876465
61.499798;-0.392578;-0.293457;0.877930
61.499882;-0.393311;-0.295410;0.873779
61.499966;-0.391357;-0.298096;0.884766
61.691017;-0.378174;-0.299561;0.873535
61.691170;-0.385742;-0.293457;0.871338
61.691265;-0.396240;-0.288330;0.881104
61.691353;-0.391113;-0.287598;0.877197
61.787933;-0.392090;-0.294678;0.873291
61.788479;-0.389648;-0.296143;0.876221
61.788574;-0.392578;-0.294434;0.875977
61.788662;-0.394287;-0.291748;0.875732
61.885983;-0.394043;-0.290771;0.876221
61.886101;-0.392090;-0.294678;0.875977
61.886650;-0.395752;-0.295898;0.873291
61.886745;-0.393555;-0.292969;0.872803
62.567566;-0.391846;-0.295166;0.876709
62.568115;-0.392578;-0.293701;0.875488
62.568218;-0.395020;-0.291504;0.875977
62.568310;-0.392822;-0.288086;0.875488
62.570511;-0.389160;-0.289062;0.875977
62.570618;-0.391357;-0.296143;0.878662
62.570705;-0.392334;-0.292969;0.872803
62.570789;-0.395996;-0.286133;0.872070
62.572269;-0.393555;-0.287354;0.876465
62.572372;-0.391357;-0.289551;0.876709
62.572456;-0.391846;-0.291504;0.875000
62.572540;-0.394043;-0.295166;0.875000
62.666439;-0.393555;-0.291016;0.873779
62.666580;-0.392578;-0.288086;0.878418
62.666672;-0.395264;-0.290283;0.876465
62.666759;-0.392822;-0.290771;0.872314
62.763283;-0.392578;-0.289307;0.874756
62.763428;-0.393066;-0.292725;0.877197
62.763672;-0.391846;-0.290527;0.875244
62.763763;-0.395020;-0.291260;0.875244
62.859985;-0.392090;-0.292480;0.875977
62.860130;-0.392090;-0.292480;0.875977
62.860226;-0.394775;-0.291260;0.874512
62.860310;-0.395020;-0.289551;0.872314
62.862003;-0.393066;-0.291260;0.875732
62.862103;-0.392334;-0.293457;0.877197
62.862186;-0.395020;-0.295166;0.872559
62.862270;-0.394775;-0.287598;0.875244
62.958145;-0.390625;-0.282959;0.876221
62.958298;-0.392334;-0.289062;0.878906
62.958393;-0.391357;-0.297607;0.875244
62.958481;-0.394531;-0.292480;0.874023
63.056244;-0.393799;-0.287354;0.876221
63.056362;-0.393555;-0.290283;0.876953
63.056454;-0.392334;-0.291748;0.874268
63.056538;-0.393311;-0.292969;0.876709
63.251026;-0.394043;-0.289551;0.874756
63.251175;-0.393555;-0.290771;0.876953
63.251270;-0.393799;-0.289307;0.877441
63.251358;-0.392822;-0.291504;0.874512
63.349529;-0.394287;-0.293701;0.874268
63.349655;-0.394287;-0.290039;0.875244
63.349747;-0.394043;-0.289307;0.874512
63.349831;-0.393066;-0.290039;0.878174
63.447945;-0.395264;-0.289062;0.877930
63.448086;-0.393555;-0.291992;0.875244
63.448177;-0.393311;-0.292236;0.875977
63.448265;-0.394043;-0.291504;0.873291
63.543034;-0.395508;-0.289307;0.875000
63.543179;-0.394775;-0.289551;0.875244
63.543270;-0.395508;-0.291504;0.874268
63.543358;-0.395996;-0.287598;0.877930
63.640930;-0.392090;-0.282227;0.874756
63.641048;-0.388184;-0.284668;0.880615
63.641140;-0.394287;-0.287598;0.878174
63.641224;-0.394043;-0.289307;0.867920
64.323784;-0.393799;-0.286621;0.873291
64.323929;-0.392822;-0.287354;0.883545
64.324020;-0.394287;-0.283936;0.875977
64.324104;-0.395264;-0.286621;0.871826
64.430466;-0.393311;-0.299072;0.878906
64.430565;-0.392334;-0.291748;0.876709
64.430626;-0.390869;-0.289062;0.876221
64.430679;-0.393066;-0.291260;0.877686
64.431404;-0.393066;-0.295410;0.876465
64.431473;-0.397461;-0.292236;0.873779
64.431526;-0.394287;-0.292236;0.870361
64.431580;-0.391846;-0.292725;0.873535
64.521225;-0.393066;-0.294922;0.876953
64.521355;-0.391846;-0.286621;0.877686
64.521446;-0.390625;-0.290039;0.877441
64.521538;-0.394531;-0.296387;0.876953
64.523071;-0.394043;-0.289795;0.872803
64.523178;-0.394287;-0.286133;0.876465
64.523262;-0.393799;-0.285400;0.879395
64.523346;-0.391113;-0.290771;0.877686
64.616341;-0.394775;-0.290527;0.873779
64.616463;-0.391602;-0.285645;0.874512
64.616554;-0.389893;-0.290039;0.878418
64.616638;-0.391846;-0.292725;0.878174
64.618134;-0.393311;-0.291016;0.873535
64.618431;-0.394287;-0.288330;0.875244
64.618530;-0.394531;-0.289307;0.874756
64.618614;-0.393799;-0.290039;0.876465
64.713051;-0.392334;-0.295410;0.875977
64.713196;-0.392822;-0.296631;0.875244
64.713295;-0.393799;-0.289551;0.874756
64.713379;-0.394043;-0.292480;0.876953
64.811325;-0.392822;-0.290527;0.875244
64.811462;-0.391113;-0.291016;0.876709
64.811562;-0.389160;-0.291992;0.873779
64.811646;-0.393311;-0.293457;0.874756
64.909798;-0.393311;-0.296387;0.876221
64.909935;-0.390869;-0.287354;0.879150
64.910034;-0.394287;-0.290771;0.878418
64.910118;-0.393555;-0.295166;0.875732
65.102722;-0.395752;-0.292725;0.872070
65.103317;-0.392822;-0.293213;0.875244
65.103416;-0.391602;-0.292725;0.875244
65.103508;-0.395752;-0.291748;0.875488
65.200821;-0.393555;-0.283447;0.873047
65.200958;-0.391846;-0.287354;0.877441
65.201050;-0.390137;-0.297363;0.879639
65.201141;-0.397461;-0.298584;0.873779
65.298187;-0.390381;-0.284180;0.868652
65.298340;-0.392822;-0.290527;0.880371
65.298431;-0.391846;-0.293945;0.878662
65.298523;-0.393066;-0.293213;0.871826
65.493057;-0.393555;-0.299072;0.873535
65.493210;-0.389404;-0.294678;0.874268
65.493301;-0.393311;-0.289551;0.875732
65.493385;-0.393799;-0.286621;0.876221
65.591209;-0.390869;-0.288818;0.876953
65.591347;-0.392822;-0.293213;0.880859
65.591438;-0.397217;-0.295166;0.872314
65.591530;-0.392334;-0.289795;0.868896
65.687950;-0.394043;-0.282959;0.878174
65.688103;-0.393799;-0.283447;0.881104
65.688194;-0.392090;-0.290039;0.874756
65.688286;-0.394531;-0.289551;0.874756
65.883087;-0.396973;-0.289062;0.878418
65.883232;-0.387451;-0.289551;0.875977
65.883324;-0.390381;-0.289551;0.875732
65.883408;-0.399170;-0.288818;0.877441
65.980850;-0.392822;-0.284424;0.872314
65.980995;-0.389404;-0.290039;0.874023
65.981087;-0.389160;-0.292725;0.876709
65.981171;-0.393799;-0.293701;0.873535
66.077866;-0.395508;-0.290039;0.872559
66.078011;-0.392334;-0.282959;0.878662
66.078102;-0.396729;-0.287109;0.880615
66.078186;-0.392334;-0.291260;0.878418
66.176247;-0.394287;-0.290771;0.873535
66.176399;-0.394775;-0.290771;0.874756
66.176491;-0.392822;-0.289551;0.879150
66.176575;-0.393311;-0.285645;0.877930
66.371284;-0.395996;-0.292969;0.873291
66.371544;-0.391846;-0.293945;0.875977
66.371742;-0.393799;-0.291748;0.876221
66.371941;-0.391602;-0.283691;0.873535
66.468719;-0.393311;-0.291016;0.876465
66.469360;-0.393555;-0.292236;0.877197
66.469475;-0.391846;-0.291504;0.876953
66.469559;-0.393555;-0.292725;0.873535
66.566055;-0.392090;-0.291992;0.875244
66.566185;-0.395752;-0.288086;0.879150
66.566277;-0.393066;-0.289307;0.877441
66.566360;-0.395264;-0.292236;0.872559
66.760361;-0.392090;-0.287354;0.876221
66.760506;-0.391846;-0.285156;0.875977
66.760597;-0.390381;-0.289795;0.879150
66.760689;-0.390381;-0.293457;0.876709
66.858376;-0.393799;-0.294189;0.875244
66.858498;-0.393066;-0.286133;0.874756
66.858589;-0.395508;-0.281982;0.876953
66.858673;-0.393799;-0.288818;0.876709
66.957146;-0.393311;-0.293945;0.874023
66.957291;-0.393066;-0.290039;0.875977
66.957390;-0.395264;-0.285645;0.878906
66.957474;-0.391602;-0.290039;0.876709
67.054993;-0.393555;-0.291992;0.875977
67.055099;-0.391357;-0.291260;0.875488
67.055191;-0.392578;-0.290039;0.877441
67.055275;-0.392090;-0.289062;0.873535
67.639832;-0.391846;-0.288818;0.875977
67.639977;-0.396729;-0.290039;0.876953
67.640137;-0.393311;-0.288330;0.872070
67.640228;-0.403076;-0.293701;0.878174
67.641685;-0.396240;-0.284180;0.875977
67.641785;-0.387451;-0.281006;0.877930
67.641869;-0.395752;-0.287598;0.881348
67.641953;-0.397217;-0.289795;0.872070
67.737099;-0.396484;-0.287354;0.874756
67.737297;-0.394287;-0.291016;0.877197
67.737404;-0.393555;-0.287598;0.877197
67.737816;-0.394043;-0.289062;0.875000
67.739677;-0.391846;-0.287842;0.874512
67.739777;-0.390137;-0.289062;0.877930
67.739861;-0.391357;-0.291504;0.879395
67.739944;-0.395508;-0.287354;0.877686
67.740112;-0.395020;-0.283691;0.873779
67.740204;-0.392334;-0.284424;0.875732
67.740280;-0.394531;-0.291260;0.878662
67.740364;-0.391846;-0.289307;0.877441
67.833336;-0.392334;-0.288086;0.875000
67.833458;-0.393311;-0.285400;0.876709
67.833549;-0.394531;-0.285400;0.878906
67.833633;-0.393311;-0.290771;0.876953
68.028290;-0.392090;-0.288574;0.874268
68.028427;-0.393311;-0.289307;0.877197
68.028526;-0.395264;-0.288818;0.877441
68.028610;-0.394287;-0.284912;0.874268
68.125420;-0.394043;-0.288818;0.878418
68.125557;-0.393311;-0.290771;0.875732
68.125648;-0.394531;-0.288086;0.874023
68.125732;-0.393066;-0.291504;0.876465
68.223969;-0.392334;-0.288086;0.878174
68.224091;-0.393799;-0.287354;0.878662
68.224182;-0.395508;-0.289062;0.876465
68.224266;-0.393555;-0.290527;0.874512
68.320580;-0.394531;-0.286865;0.878662
68.320724;-0.392090;-0.287598;0.875977
68.320816;-0.395264;-0.288818;0.877930
68.320900;-0.394043;-0.287354;0.878174
68.515671;-0.390381;-0.285156;0.874023
68.515816;-0.389893;-0.291260;0.877686
68.515907;-0.393555;-0.291992;0.879395
68.516014;-0.396729;-0.284668;0.872070
68.613258;-0.394287;-0.282227;0.875977
68.613388;-0.396240;-0.289307;0.880127
68.613487;-0.390625;-0.289062;0.876221
68.613571;-0.392822;-0.290283;0.875244
68.711281;-0.396973;-0.291016;0.874023
68.711433;-0.392822;-0.285889;0.877441
68.711533;-0.395752;-0.287842;0.879883
68.711617;-0.392578;-0.290283;0.875732
68.905609;-0.391846;-0.289795;0.875488
68.908745;-0.394531;-0.291016;0.875488
68.908852;-0.390625;-0.288574;0.876465
68.908943;-0.394287;-0.285156;0.879150
69.003860;-0.392578;-0.285400;0.875732
69.004005;-0.392334;-0.292236;0.875000
69.004097;-0.394531;-0.291504;0.876465
69.004189;-0.403076;-0.290283;0.874756
69.100525;-0.390625;-0.287109;0.875977
69.100670;-0.390625;-0.283203;0.874023
69.100769;-0.394287;-0.287109;0.878662
69.100853;-0.393799;-0.290527;0.876709
69.298088;-0.393799;-0.285645;0.874756
69.298210;-0.395020;-0.284424;0.875488
69.298294;-0.394775;-0.287598;0.877197
69.298378;-0.390381;-0.284180;0.875488
69.393250;-0.390869;-0.285645;0.877930
69.393379;-0.394043;-0.290527;0.880371
69.393471;-0.392822;-0.287842;0.875000
69.393562;-0.395752;-0.285400;0.872559
69.490784;-0.393799;-0.290283;0.875244
69.490929;-0.394531;-0.286621;0.879395
69.491020;-0.390625;-0.288574;0.876221
69.491104;-0.394287;-0.290527;0.875977
69.589981;-0.394531;-0.286133;0.877197
69.590096;-0.393555;-0.286865;0.876465
69.590179;-0.395264;-0.290039;0.877197
69.590263;-0.394043;-0.283447;0.873291
70.174263;-0.393799;-0.291016;0.874756
70.174400;-0.390869;-0.294434;0.876953
70.174500;-0.392334;-0.289062;0.874512
70.174583;-0.397705;-0.285400;0.872803
70.272079;-0.395996;-0.284424;0.878174
70.272217;-0.391357;-0.286621;0.881348
70.272308;-0.393066;-0.287354;0.879395
70.273125;-0.397461;-0.287842;0.872314
70.273216;-0.398193;-0.285645;0.875488
70.273300;-0.396973;-0.288818;0.879883
70.273392;-0.394531;-0.287354;0.878906
70.273483;-0.397217;-0.288086;0.879150
70.274498;-0.393066;-0.285889;0.874512
70.274582;-0.387939;-0.290527;0.874756
70.274666;-0.393799;-0.289795;0.878906
70.274750;-0.394287;-0.285156;0.874756
70.368317;-0.397217;-0.284424;0.873535
70.368454;-0.394287;-0.287842;0.876709
70.368881;-0.393555;-0.291260;0.875977
70.369835;-0.393555;-0.291748;0.878906
70.371101;-0.391602;-0.287109;0.875244
70.371193;-0.395020;-0.288086;0.878418
70.371284;-0.396729;-0.288574;0.879150
70.371368;-0.390869;-0.289307;0.875488
70.563438;-0.393555;-0.288818;0.875000
70.563583;-0.394531;-0.287598;0.876465
70.563675;-0.395020;-0.287598;0.874756
70.563766;-0.390381;-0.289307;0.878174
70.660690;-0.392334;-0.292480;0.877686
70.660835;-0.394287;-0.287109;0.875977
70.660927;-0.393311;-0.291504;0.875977
70.661011;-0.395020;-0.292725;0.877441
70.758415;-0.396973;-0.288574;0.873047
70.758598;-0.393555;-0.291260;0.877441
70.758698;-0.395264;-0.292480;0.874268
70.758781;-0.393555;-0.296387;0.875977
70.855698;-0.392334;-0.280518;0.878906
70.855843;-0.389648;-0.283447;0.876953
70.855934;-0.392822;-0.287354;0.880371
70.856430;-0.394287;-0.288086;0.875244
71.050484;-0.395752;-0.288574;0.873047
71.050636;-0.394043;-0.285400;0.877930
71.050728;-0.395752;-0.282959;0.879150
71.050819;-0.393311;-0.285889;0.877197
71.148071;-0.392334;-0.288574;0.875732
71.148216;-0.392578;-0.291016;0.877197
71.148308;-0.392090;-0.287598;0.877441
71.148392;-0.396240;-0.281006;0.876709
71.247162;-0.394775;-0.282471;0.878174
71.247276;-0.391602;-0.287109;0.876709
71.247360;-0.394043;-0.289551;0.876465
71.247452;-0.396973;-0.287354;0.876465
71.440712;-0.393311;-0.283447;0.874756
71.440842;-0.393066;-0.289307;0.879395
71.440933;-0.397949;-0.285156;0.873291
71.441025;-0.394775;-0.284912;0.874512
71.538101;-0.393311;-0.291992;0.878418
71.538246;-0.393555;-0.287354;0.878174
71.538338;-0.395996;-0.287109;0.875488
71.538422;-0.392090;-0.281982;0.875244
71.636978;-0.390381;-0.283203;0.878418
71.637077;-0.394287;-0.290283;0.878174
71.637161;-0.394531;-0.291260;0.873047
71.637245;-0.396240;-0.286377;0.874512
71.733231;-0.395020;-0.280273;0.880371
71.733383;-0.394531;-0.284668;0.879883
71.733475;-0.392090;-0.287842;0.876221
71.733566;-0.395264;-0.290283;0.874512
71.928200;-0.392090;-0.285156;0.874512
71.928345;-0.393555;-0.282471;0.880127
71.928436;-0.395264;-0.280518;0.879395
71.928520;-0.395020;-0.283936;0.876709
72.027145;-0.392822;-0.287109;0.876465
72.027252;-0.393555;-0.287598;0.876709
72.027344;-0.394531;-0.285889;0.878174
72.027428;-0.395508;-0.284912;0.877930
72.123421;-0.393555;-0.287354;0.880371
72.123550;-0.393799;-0.287842;0.876953
72.123642;-0.395996;-0.283447;0.872314
72.123840;-0.394531;-0.287109;0.878174
72.221352;-0.396240;-0.287598;0.879150
72.221451;-0.395020;-0.286133;0.875000
72.221535;-0.393066;-0.290039;0.875732
72.221619;-0.395508;-0.279541;0.880127
72.808647;-0.392822;-0.281982;0.879150
72.808792;-0.393555;-0.287109;0.879883
72.808884;-0.393311;-0.286865;0.876221
72.808975;-0.394531;-0.281738;0.875244
72.905289;-0.394043;-0.282471;0.877686
72.905418;-0.393066;-0.283691;0.877197
72.905518;-0.392334;-0.287598;0.875977
72.905602;-0.393311;-0.286865;0.875977
72.910057;-0.393311;-0.281982;0.876709
72.910172;-0.395020;-0.283936;0.879639
72.910255;-0.394287;-0.285400;0.876465
72.910851;-0.396729;-0.281250;0.877441
73.000694;-0.393311;-0.285156;0.876953
73.000839;-0.392578;-0.281982;0.876953
73.000938;-0.394287;-0.284912;0.877686
73.001022;-0.391113;-0.286133;0.879150
73.195992;-0.391846;-0.288086;0.877930
73.196274;-0.396484;-0.282715;0.876221
73.196373;-0.394531;-0.283936;0.879150
73.196457;-0.391113;-0.287354;0.876953
73.198822;-0.395264;-0.284180;0.876709
73.198929;-0.389648;-0.277832;0.877930
73.199013;-0.395996;-0.279541;0.881592
73.199097;-0.393066;-0.280273;0.879395
73.199181;-0.391602;-0.282959;0.877686
73.199265;-0.395020;-0.286133;0.878906
73.199348;-0.396240;-0.284912;0.875000
73.199432;-0.396240;-0.281494;0.874756
73.293175;-0.395752;-0.277100;0.880127
73.293312;-0.390869;-0.283936;0.879150
73.293404;-0.395020;-0.283936;0.877686
73.293495;-0.396240;-0.281738;0.875488
73.391327;-0.395264;-0.284180;0.878418
73.391441;-0.396240;-0.280518;0.880859
73.391533;-0.394531;-0.281250;0.876465
73.391624;-0.394043;-0.285156;0.877197
73.587555;-0.391846;-0.287354;0.876953
73.587677;-0.392822;-0.286377;0.876221
73.587769;-0.393066;-0.285645;0.878662
73.587860;-0.395264;-0.284180;0.878906
73.683174;-0.395020;-0.282471;0.881592
73.683327;-0.395996;-0.283447;0.876221
73.683418;-0.394531;-0.280762;0.876465
73.683502;-0.395020;-0.285156;0.878174
73.780380;-0.394531;-0.278320;0.879883
73.780525;-0.396729;-0.283936;0.875000
73.780617;-0.395996;-0.283691;0.876953
73.780708;-0.390381;-0.276855;0.874756
73.878510;-0.393066;-0.284180;0.881592
73.878632;-0.397217;-0.285889;0.880859
73.878723;-0.397461;-0.284180;0.872559
73.878807;-0.395264;-0.280029;0.876953
73.976135;-0.394287;-0.283203;0.877441
73.976257;-0.396729;-0.281738;0.880371
73.976341;-0.394531;-0.285400;0.877930
73.976433;-0.392578;-0.286377;0.875732
74.562004;-0.391846;-0.288086;0.877686
74.562157;-0.397461;-0.280762;0.880371
74.562256;-0.397461;-0.278564;0.879150
74.562347;-0.393799;-0.283936;0.877930
74.564415;-0.392822;-0.285889;0.878418
74.564507;-0.396240;-0.281006;0.878174
74.564590;-0.395264;-0.280762;0.876709
74.564674;-0.396973;-0.283447;0.876465
74.662056;-0.394043;-0.281250;0.879395
74.662186;-0.397705;-0.282715;0.877441
74.662277;-0.395996;-0.279297;0.877930
74.662369;-0.393555;-0.285889;0.876953
74.662453;-0.394043;-0.281738;0.878174
74.663116;-0.396729;-0.282471;0.874756
74.663223;-0.397461;-0.285400;0.877441
74.663429;-0.392822;-0.280273;0.877441
74.665596;-0.391602;-0.279053;0.879639
74.665680;-0.389893;-0.282959;0.884033
74.665909;-0.395996;-0.284424;0.878662
74.665993;-0.397705;-0.281250;0.872070
74.755882;-0.395996;-0.279785;0.877197
74.756020;-0.394287;-0.281250;0.880371
74.756111;-0.394531;-0.279053;0.877441
74.756195;-0.394287;-0.285645;0.876221
75.341560;-0.397461;-0.284912;0.876221
75.341705;-0.398193;-0.284180;0.875977
75.341805;-0.394775;-0.277832;0.876709
75.341888;-0.396484;-0.281982;0.879639
75.438972;-0.391602;-0.280273;0.882324
75.439095;-0.392334;-0.281250;0.877686
75.439186;-0.394775;-0.286621;0.879639
75.439270;-0.392334;-0.287354;0.876709
75.535942;-0.395996;-0.281982;0.876465
75.536095;-0.397461;-0.277832;0.879639
75.536331;-0.397217;-0.281982;0.879395
75.536430;-0.395020;-0.286133;0.879395
75.537537;-0.397949;-0.285645;0.871826
75.537628;-0.396729;-0.284180;0.874268
75.537712;-0.406982;-0.292969;0.881348
75.538200;-0.392090;-0.271240;0.873047
75.633492;-0.396729;-0.274170;0.882568
75.633942;-0.398438;-0.277100;0.885742
75.634041;-0.392578;-0.277588;0.874756
75.634132;-0.393311;-0.282959;0.878174
75.635880;-0.395996;-0.281738;0.879639
75.635994;-0.399414;-0.278076;0.875000
75.636086;-0.396484;-0.277100;0.876221
75.636162;-0.397461;-0.279297;0.878906
75.730179;-0.395752;-0.283936;0.876709
75.730331;-0.396729;-0.280518;0.879395
75.730431;-0.395996;-0.282227;0.877197
75.730568;-0.395996;-0.281982;0.877197
75.829735;-0.391846;-0.279297;0.876465
75.829849;-0.395752;-0.282227;0.878174
75.829933;-0.396240;-0.282227;0.877441
75.830017;-0.394043;-0.283691;0.876465
75.925697;-0.398926;-0.281738;0.878418
75.925850;-0.394775;-0.279053;0.878174
75.925941;-0.402100;-0.293457;0.879639
75.926033;-0.388916;-0.285889;0.875732
76.023956;-0.394287;-0.274658;0.879395
76.024071;-0.395264;-0.277832;0.884277
76.024162;-0.397217;-0.282959;0.876465
76.024246;-0.395996;-0.287109;0.874756
76.609085;-0.394287;-0.289795;0.874512
76.609238;-0.396973;-0.288086;0.873535
76.609329;-0.399414;-0.279053;0.879639
76.609421;-0.396240;-0.274414;0.877930
76.705139;-0.393555;-0.281738;0.879883
76.705292;-0.391846;-0.290283;0.880371
76.705383;-0.393066;-0.284912;0.875732
76.705490;-0.394287;-0.278320;0.878662
76.803673;-0.397217;-0.276611;0.877930
76.803795;-0.396484;-0.279053;0.878174
76.803886;-0.397461;-0.283203;0.875732
76.803970;-0.394531;-0.284668;0.875977
76.904373;-0.392822;-0.286377;0.876953
76.904510;-0.395020;-0.280518;0.879883
76.904602;-0.395996;-0.282227;0.876465
76.904686;-0.395752;-0.281006;0.876465
76.998459;-0.397217;-0.283936;0.879395
76.998596;-0.396240;-0.279297;0.877686
76.998688;-0.395996;-0.281006;0.876465
76.998772;-0.392334;-0.283203;0.883301
77.097313;-0.387451;-0.284180;0.875244
77.097443;-0.399902;-0.281738;0.875977
77.097534;-0.394775;-0.276855;0.875244
77.097618;-0.395996;-0.282715;0.879883
77.097702;-0.395996;-0.282227;0.876953
77.097786;-0.394043;-0.280762;0.876221
77.097870;-0.398682;-0.279541;0.879639
77.097954;-0.394531;-0.277100;0.878662
77.291840;-0.395020;-0.278320;0.881592
77.292343;-0.394043;-0.283936;0.878906
77.292450;-0.397705;-0.286621;0.875488
77.292534;-0.394043;-0.282227;0.876221
77.294632;-0.405273;-0.278320;0.880371
77.294746;-0.397217;-0.280273;0.877441
77.294838;-0.390625;-0.281006;0.877930
77.294914;-0.395508;-0.283203;0.876953
77.294998;-0.394775;-0.280273;0.877686
77.295143;-0.396729;-0.276611;0.879883
77.295227;-0.400146;-0.280518;0.879395
77.295303;-0.395264;-0.276123;0.877686
77.389099;-0.395508;-0.281006;0.877197
77.389175;-0.394287;-0.282227;0.877686
77.389236;-0.395996;-0.279541;0.881592
77.389290;-0.400146;-0.277100;0.879639
77.974365;-0.394531;-0.282471;0.876709
77.974510;-0.400635;-0.287598;0.878174
77.974602;-0.395508;-0.277832;0.875732
77.974686;-0.396973;-0.278320;0.882080
78.070686;-0.395264;-0.281494;0.878662
78.070831;-0.393799;-0.280029;0.877441
78.070923;-0.396484;-0.279785;0.877441
78.071007;-0.394043;-0.278320;0.880127
78.168144;-0.393311;-0.276855;0.879150
78.168297;-0.395264;-0.280273;0.879150
78.168388;-0.398926;-0.284912;0.875000
78.168480;-0.397705;-0.282959;0.876221
78.169434;-0.396484;-0.282227;0.876709
78.169716;-0.392822;-0.277344;0.879395
78.169823;-0.398682;-0.279053;0.882324
78.169907;-0.397949;-0.277832;0.879883
78.267220;-0.393799;-0.276611;0.877686
78.267334;-0.398193;-0.280273;0.878174
78.267426;-0.398438;-0.278076;0.876221
78.267509;-0.399902;-0.276611;0.880127
78.269661;-0.396973;-0.274658;0.879150
78.269745;-0.393799;-0.276367;0.876709
78.269829;-0.394531;-0.281982;0.876953
78.269913;-0.393799;-0.283936;0.877686
78.363495;-0.394287;-0.276855;0.879150
78.363625;-0.399658;-0.274414;0.880859
78.363724;-0.402344;-0.275879;0.879395
78.363808;-0.400391;-0.277588;0.880615
78.461250;-0.397705;-0.279541;0.880859
78.461411;-0.397217;-0.283203;0.877441
78.461502;-0.395508;-0.276367;0.878174
78.461586;-0.395508;-0.273682;0.878174
78.558823;-0.393311;-0.277588;0.879639
78.558952;-0.394287;-0.280518;0.882080
78.559052;-0.395508;-0.277832;0.878174
78.559135;-0.394531;-0.273682;0.871582
78.753822;-0.400879;-0.281006;0.884277
78.753960;-0.399658;-0.283691;0.878174
78.754051;-0.395996;-0.282471;0.874023
78.754143;-0.395508;-0.280029;0.876465
78.850929;-0.391113;-0.282471;0.880127
78.851067;-0.395020;-0.283203;0.877930
78.851158;-0.396240;-0.282959;0.877930
78.851242;-0.394775;-0.281006;0.878906
78.948555;-0.394043;-0.281006;0.879639
78.948692;-0.392334;-0.280029;0.884521
78.948784;-0.398438;-0.280762;0.886475
78.948875;-0.403076;-0.284424;0.875244
79.045845;-0.396240;-0.286133;0.869629
79.045990;-0.399414;-0.295410;0.878418
79.046082;-0.391602;-0.286865;0.877441
79.046173;-0.398926;-0.278564;0.877686
79.241196;-0.393066;-0.280273;0.877930
79.241333;-0.389648;-0.284180;0.875488
79.241425;-0.395752;-0.280273;0.882324
79.241508;-0.393311;-0.288818;0.873291
79.338486;-0.385986;-0.290283;0.870850
79.338623;-0.395752;-0.296143;0.876709
79.338722;-0.390869;-0.305664;0.873535
79.338806;-0.388184;-0.304688;0.867432
79.442284;-0.395020;-0.300537;0.873291
79.442429;-0.393311;-0.304688;0.874756
79.442528;-0.384521;-0.302002;0.885498
79.447121;-0.385742;-0.288330;0.876221
79.630768;-0.400635;-0.280762;0.876465
79.630905;-0.394775;-0.285645;0.876221
79.631004;-0.381836;-0.298584;0.867920
79.631088;-0.383057;-0.299316;0.871582
79.728577;-0.392090;-0.295410;0.873779
79.728714;-0.405029;-0.291504;0.872559
79.728813;-0.402344;-0.291260;0.875732
79.728897;-0.392090;-0.291016;0.875000
79.825790;-0.390381;-0.293701;0.879883
79.825928;-0.389160;-0.294922;0.870850
79.826019;-0.384521;-0.296387;0.860107
79.826103;-0.391846;-0.296387;0.876709
79.923599;-0.393311;-0.282959;0.883301
79.923744;-0.394287;-0.271240;0.883301
79.923836;-0.396484;-0.282227;0.885010
79.924774;-0.394531;-0.295654;0.882080
80.509682;-0.401123;-0.291260;0.872314
80.509819;-0.388916;-0.300537;0.864990
80.509911;-0.386475;-0.299072;0.875488
80.510002;-0.387939;-0.294434;0.881348
80.511093;-0.393311;-0.287598;0.876465
80.511177;-0.392578;-0.297119;0.878418
80.511253;-0.392090;-0.304443;0.881348
80.511330;-0.397705;-0.289062;0.875244
80.605911;-0.396729;-0.285400;0.877686
80.606041;-0.403564;-0.280029;0.879395
80.606140;-0.386475;-0.285889;0.877441
80.606224;-0.386719;-0.295654;0.879883
80.704323;-0.397217;-0.282715;0.878418
80.704613;-0.390137;-0.285400;0.866699
80.704712;-0.391846;-0.291016;0.877197
80.704796;-0.398926;-0.276855;0.885986
80.706894;-0.401611;-0.275391;0.871826
80.707001;-0.397705;-0.291992;0.867188
80.707085;-0.388184;-0.290283;0.872314
80.707169;-0.390381;-0.282227;0.881836
80.707253;-0.389648;-0.282227;0.885498
80.708954;-0.390381;-0.287842;0.883057
80.709045;-0.402100;-0.284668;0.877930
80.709129;-0.406494;-0.280518;0.875732
80.801239;-0.392578;-0.278564;0.872314
80.801353;-0.397461;-0.296387;0.881348
80.801445;-0.392822;-0.297607;0.876465
80.801529;-0.394287;-0.281250;0.874023
81.386841;-0.398926;-0.269531;0.874512
81.386986;-0.399170;-0.268311;0.878418
81.387077;-0.384033;-0.268555;0.875732
81.387169;-0.387207;-0.269287;0.890381
81.483612;-0.386475;-0.268311;0.884277
81.483749;-0.392334;-0.287842;0.872559
81.483849;-0.400146;-0.304199;0.880371
81.483948;-0.402832;-0.294434;0.874512
81.580536;-0.399658;-0.278076;0.876953
81.580673;-0.402832;-0.274170;0.881104
81.580765;-0.400879;-0.280518;0.874512
81.580849;-0.399414;-0.290527;0.876221
81.678917;-0.397461;-0.276855;0.874756
81.679070;-0.402100;-0.270264;0.879883
81.679161;-0.400879;-0.269287;0.878174
81.679245;-0.395020;-0.273682;0.879639
81.873405;-0.396240;-0.282715;0.879639
81.873558;-0.395752;-0.278076;0.879150
81.873665;-0.403076;-0.280762;0.880371
81.873756;-0.401855;-0.277344;0.876709
81.875557;-0.402100;-0.280273;0.874512
81.875664;-0.395996;-0.282959;0.871094
81.875748;-0.392578;-0.292725;0.877930
81.875832;-0.397217;-0.305420;0.872559
81.970810;-0.388672;-0.282959;0.874023
81.970963;-0.398438;-0.283691;0.879150
81.971062;-0.399170;-0.283203;0.879883
81.971146;-0.396729;-0.284912;0.879395
82.069061;-0.390625;-0.284424;0.877441
82.069176;-0.388672;-0.284180;0.875732
82.069283;-0.396240;-0.282471;0.877197
82.069901;-0.398438;-0.278564;0.877197
82.071297;-0.396240;-0.277588;0.877686
82.071381;-0.397461;-0.279297;0.882080
82.071465;-0.400879;-0.278809;0.878662
82.071548;-0.402832;-0.275635;0.873779
82.166374;-0.402100;-0.277588;0.880371
82.166962;-0.397217;-0.282227;0.879150
82.167053;-0.391357;-0.283447;0.875732
82.167145;-0.399414;-0.281006;0.878906
82.263214;-0.401123;-0.280518;0.877930
82.263359;-0.402344;-0.280518;0.877441
82.263451;-0.399658;-0.282471;0.878906
82.263542;-0.396484;-0.285889;0.874756
82.361031;-0.389648;-0.287354;0.876709
82.361160;-0.395996;-0.284668;0.876953
82.361259;-0.396484;-0.279053;0.875244
82.361343;-0.397461;-0.280518;0.875977
82.460808;-0.405762;-0.288818;0.876221
82.460930;-0.405273;-0.281494;0.871094
82.461014;-0.399170;-0.274902;0.868652
82.461098;-0.393799;-0.285400;0.885986
82.653809;-0.400391;-0.297607;0.881592
82.653954;-0.391113;-0.291992;0.866455
82.654083;-0.389648;-0.285645;0.879395
82.654175;-0.396484;-0.281006;0.888916
82.751122;-0.399902;-0.278564;0.880859
82.751259;-0.395264;-0.293701;0.870361
82.751350;-0.391113;-0.300537;0.866943
82.751434;-0.393066;-0.298584;0.872070
82.848335;-0.398926;-0.294678;0.872803
82.848480;-0.402832;-0.312500;0.872803
82.848572;-0.388428;-0.290771;0.872070
82.848656;-0.388916;-0.286133;0.881104
82.946335;-0.395996;-0.283447;0.884521
82.946449;-0.391113;-0.277100;0.875977
82.946541;-0.395752;-0.285889;0.874023
82.946625;-0.395752;-0.288330;0.875000
83.532333;-0.398926;-0.274902;0.876221
83.532593;-0.407959;-0.270752;0.879639
83.532692;-0.412109;-0.277344;0.881348
83.533142;-0.403809;-0.278809;0.874268
83.535027;-0.395996;-0.285889;0.876221
83.535110;-0.391846;-0.293457;0.873047
83.535194;-0.389893;-0.288086;0.875488
83.535278;-0.399414;-0.285645;0.880859
83.628120;-0.400879;-0.281738;0.882324
83.628601;-0.398926;-0.280518;0.878662
83.628693;-0.395508;-0.284668;0.869629
83.629097;-0.390137;-0.295166;0.872070
83.630798;-0.385254;-0.298340;0.874023
83.630913;-0.392090;-0.284912;0.878418
83.630997;-0.404785;-0.277344;0.880371
83.631081;-0.407959;-0.272949;0.876709
83.632103;-0.398926;-0.281982;0.877441
83.632210;-0.393555;-0.284912;0.880859
83.632294;-0.390869;-0.290771;0.876709
83.632370;-0.395020;-0.284912;0.871826
83.726685;-0.401611;-0.283447;0.875244
83.726830;-0.404053;-0.275146;0.879395
83.726921;-0.400146;-0.274902;0.880127
83.727005;-0.397217;-0.283203;0.877197
83.823242;-0.399170;-0.284424;0.875244
83.823380;-0.396973;-0.283691;0.872803
83.823486;-0.392090;-0.281494;0.879639
83.823578;-0.397217;-0.274170;0.883545
84.116188;-0.394531;-0.281006;0.872803
84.116333;-0.393555;-0.289795;0.873535
84.116425;-0.398682;-0.280029;0.879395
84.116844;-0.402832;-0.270264;0.884521
84.118126;-0.405518;-0.272705;0.880859
84.118233;-0.398926;-0.280273;0.878906
84.118317;-0.402100;-0.290771;0.872559
84.118401;-0.398926;-0.289795;0.867920
84.213402;-0.394531;-0.281250;0.874756
84.213547;-0.397949;-0.277100;0.886719
84.213638;-0.399658;-0.272461;0.881104
84.213799;-0.403564;-0.276367;0.869385
84.447418;-0.393066;-0.286133;0.870850
84.447495;-0.392090;-0.289307;0.882568
84.447533;-0.396240;-0.279785;0.883301
84.447571;-0.406006;-0.267334;0.880859
84.506119;-0.407227;-0.266113;0.877197
84.506287;-0.398193;-0.271973;0.879150
84.506386;-0.391113;-0.289551;0.877930
84.506470;-0.394043;-0.289551;0.873291
84.603394;-0.405029;-0.283447;0.872803
84.603546;-0.406250;-0.273682;0.877197
84.603638;-0.394287;-0.276367;0.880127
84.603722;-0.391113;-0.286621;0.886230
84.701210;-0.395752;-0.285889;0.875488
84.701317;-0.401123;-0.281250;0.871582
84.701408;-0.399170;-0.283691;0.869385
84.701485;-0.398926;-0.278076;0.879150
85.493134;-0.401855;-0.275879;0.879639
85.493256;-0.396240;-0.279053;0.876465
85.493347;-0.399902;-0.287598;0.881836
85.493439;-0.405029;-0.281738;0.879883
85.494850;-0.406006;-0.272217;0.878906
85.495094;-0.402832;-0.272461;0.880371
85.495178;-0.400146;-0.280029;0.874756
85.495262;-0.396240;-0.277588;0.870361
85.495346;-0.404785;-0.277100;0.873047
85.495430;-0.396973;-0.278076;0.875244
85.495514;-0.397217;-0.280273;0.882324
85.495598;-0.399414;-0.281738;0.879883
85.513527;-0.398193;-0.285400;0.875244
85.513718;-0.404297;-0.282715;0.878662
85.513824;-0.406006;-0.269531;0.878174
85.513924;-0.402588;-0.271729;0.873779
85.579063;-0.395020;-0.285645;0.875732
85.579178;-0.388916;-0.289551;0.876465
85.579269;-0.401855;-0.299561;0.882812
85.579361;-0.400635;-0.280518;0.872803
85.853767;-0.410645;-0.269531;0.872803
85.857903;-0.399170;-0.290039;0.883301
85.858025;-0.388428;-0.280762;0.877686
85.858124;-0.395996;-0.284912;0.878906
85.858307;-0.400635;-0.282471;0.876221
85.858398;-0.398682;-0.282471;0.872803
85.858482;-0.395264;-0.283936;0.877930
85.858566;-0.399170;-0.282227;0.879395
85.858734;-0.402832;-0.274170;0.879639
85.858818;-0.400391;-0.277100;0.875488
85.858894;-0.402832;-0.282471;0.876953
85.858978;-0.400146;-0.277588;0.875000
85.872009;-0.395020;-0.276367;0.873779
85.872154;-0.393311;-0.281982;0.881104
85.872238;-0.397949;-0.277344;0.880615
85.872330;-0.398438;-0.277344;0.873779
85.969193;-0.396729;-0.281006;0.876221
85.969315;-0.400879;-0.280029;0.880127
85.969414;-0.403809;-0.275879;0.880859
85.969498;-0.403809;-0.277100;0.878662
86.553535;-0.405518;-0.271484;0.875977
86.553726;-0.402832;-0.271484;0.878418
86.553818;-0.400879;-0.272461;0.875977
86.553909;-0.397217;-0.266602;0.875488
86.653282;-0.405762;-0.266846;0.880615
86.653473;-0.403809;-0.268555;0.875732
86.653564;-0.406250;-0.273438;0.876953
86.653648;-0.407471;-0.271973;0.879883
86.748772;-0.395508;-0.274902;0.877930
86.748894;-0.394043;-0.274902;0.880615
86.748985;-0.399658;-0.285889;0.884277
86.749069;-0.394531;-0.278564;0.879395
86.845711;-0.393066;-0.276123;0.873047
86.846039;-0.403564;-0.285156;0.882080
86.846146;-0.406494;-0.286377;0.873779
86.846237;-0.403320;-0.283447;0.865479
86.943504;-0.397949;-0.288086;0.880859
86.943657;-0.395996;-0.279785;0.887695
86.943764;-0.399170;-0.272217;0.881592
86.943848;-0.401123;-0.276611;0.872314
87.040482;-0.398926;-0.281006;0.875488
87.040634;-0.402344;-0.279541;0.881836
87.040726;-0.395752;-0.276855;0.874756
87.041000;-0.401367;-0.274414;0.877197
87.138519;-0.402832;-0.273193;0.879150
87.138664;-0.402832;-0.274170;0.877686
87.138756;-0.398438;-0.273438;0.877441
87.138847;-0.396729;-0.272705;0.881836
87.236916;-0.401123;-0.270508;0.884766
87.237183;-0.408203;-0.273193;0.873047
87.237282;-0.404541;-0.271484;0.873047
87.237366;-0.398193;-0.276367;0.883545
87.239128;-0.396973;-0.273438;0.885742
87.239220;-0.401611;-0.273682;0.871338
87.239311;-0.395020;-0.285156;0.868408
87.239395;-0.392822;-0.293945;0.885498
87.239471;-0.394287;-0.283691;0.885010
87.239555;-0.398926;-0.281250;0.872070
87.239647;-0.404541;-0.288574;0.873291
87.239723;-0.393555;-0.290771;0.875488
87.432594;-0.395264;-0.284424;0.883545
87.432755;-0.397705;-0.270752;0.883301
87.432846;-0.405762;-0.263428;0.871094
87.432938;-0.403076;-0.273438;0.875244
87.532150;-0.396240;-0.276855;0.881104
87.532303;-0.395020;-0.271729;0.884277
87.532402;-0.408203;-0.266357;0.877197
87.532486;-0.406006;-0.264160;0.875000
87.626068;-0.404785;-0.270996;0.879150
87.626228;-0.396484;-0.276367;0.876709
87.626389;-0.391846;-0.282471;0.876709
87.626480;-0.400635;-0.283203;0.879395
87.820801;-0.403076;-0.270264;0.879639
87.820930;-0.396973;-0.274414;0.875977
87.821030;-0.395020;-0.286377;0.879639
87.821114;-0.394043;-0.287842;0.877197
87.918549;-0.395996;-0.281494;0.874268
87.918678;-0.397705;-0.280273;0.879639
87.918770;-0.399902;-0.277100;0.878174
87.918854;-0.399902;-0.280273;0.877686
88.015831;-0.398193;-0.282227;0.875977
88.015968;-0.398193;-0.281738;0.875488
88.016060;-0.402832;-0.277344;0.878906
88.016151;-0.403076;-0.273926;0.880615
88.113556;-0.395752;-0.279785;0.878174
88.113678;-0.393799;-0.290039;0.876953
88.113770;-0.393311;-0.282715;0.875732
88.113853;-0.398926;-0.273926;0.878174
88.698883;-0.398193;-0.271484;0.880127
88.699364;-0.398682;-0.279541;0.880127
88.699478;-0.395020;-0.281006;0.878662
88.699638;-0.393799;-0.278809;0.876709
88.700363;-0.401611;-0.272705;0.880127
88.700783;-0.405518;-0.270020;0.882812
88.700989;-0.406250;-0.268799;0.878418
88.701080;-0.410400;-0.260742;0.874756
88.808662;-0.404297;-0.262939;0.873047
88.808731;-0.395996;-0.274658;0.877197
88.809227;-0.399170;-0.278809;0.881592
88.809273;-0.396973;-0.278809;0.879639
88.809906;-0.399902;-0.286621;0.878174
88.809952;-0.400635;-0.291504;0.873291
88.809990;-0.394775;-0.287354;0.878662
88.810036;-0.395752;-0.281250;0.882324
88.892479;-0.397705;-0.283936;0.877441
88.892670;-0.397217;-0.286621;0.876221
88.892731;-0.396973;-0.274414;0.878906
88.892784;-0.400391;-0.268555;0.879883
88.893822;-0.395020;-0.278564;0.878662
88.893944;-0.394287;-0.284912;0.874756
88.894196;-0.393555;-0.281006;0.872559
88.894257;-0.400635;-0.269043;0.881836
88.991745;-0.405518;-0.262451;0.882324
88.991898;-0.400879;-0.268555;0.878662
88.991989;-0.401367;-0.279785;0.877930
88.992073;-0.398682;-0.277100;0.876221
89.240036;-0.401855;-0.274414;0.880859
89.240097;-0.402588;-0.271484;0.881104
89.240120;-0.399414;-0.275391;0.876953
89.240135;-0.399658;-0.284180;0.879150
89.282814;-0.389893;-0.276855;0.876709
89.283005;-0.396729;-0.264160;0.881592
89.283028;-0.404053;-0.260254;0.887695
89.283051;-0.403564;-0.270996;0.883545
89.380280;-0.400635;-0.278809;0.877686
89.380363;-0.399170;-0.278320;0.874756
89.380463;-0.399170;-0.273438;0.879395
89.380493;-0.395508;-0.271973;0.881592
89.966003;-0.395996;-0.273193;0.878174
89.966133;-0.399414;-0.283203;0.874268
89.966225;-0.399170;-0.277588;0.875732
89.966309;-0.398682;-0.272949;0.881104
90.063820;-0.398193;-0.271729;0.883545
90.063972;-0.395264;-0.278564;0.875488
90.064072;-0.396240;-0.276367;0.876709
90.064156;-0.398438;-0.273193;0.877686
90.169601;-0.403320;-0.271729;0.879883
90.169823;-0.404541;-0.270996;0.883301
90.169991;-0.399658;-0.273682;0.878906
90.170067;-0.398193;-0.275635;0.881348
90.170128;-0.400879;-0.272461;0.881104
90.170197;-0.398682;-0.277100;0.875977
90.170258;-0.398193;-0.280762;0.880371
90.170311;-0.397461;-0.278564;0.880859
90.354683;-0.395508;-0.281494;0.870361
90.354759;-0.399902;-0.282715;0.875000
90.354797;-0.400879;-0.278564;0.882324
90.354836;-0.397949;-0.276855;0.876709
90.356041;-0.396240;-0.287598;0.874023
90.356087;-0.395508;-0.284668;0.874756
90.356117;-0.403809;-0.273926;0.880371
90.356148;-0.403564;-0.267334;0.877686
90.357254;-0.401123;-0.275146;0.877441
90.357300;-0.395264;-0.284668;0.875000
90.357330;-0.394531;-0.278564;0.878662
90.357353;-0.399170;-0.271729;0.879395
90.453049;-0.401123;-0.267334;0.880615
90.453133;-0.400635;-0.280273;0.879395
90.453171;-0.397949;-0.285156;0.876221
90.453209;-0.398438;-0.277344;0.876709
90.551025;-0.403320;-0.278809;0.880615
90.551201;-0.402100;-0.278564;0.880371
90.551262;-0.400879;-0.271729;0.879150
90.551331;-0.400146;-0.271484;0.880615
90.648315;-0.396729;-0.275635;0.877686
90.648460;-0.395996;-0.280518;0.875488
90.648544;-0.396973;-0.275391;0.875732
90.648621;-0.398682;-0.279541;0.878418
90.843628;-0.397949;-0.275391;0.877930
90.844940;-0.402344;-0.277832;0.882080
90.845421;-0.401855;-0.280029;0.880859
90.845535;-0.400391;-0.275879;0.878174
90.941711;-0.396973;-0.274902;0.874023
90.941841;-0.397461;-0.277100;0.874756
90.941933;-0.401611;-0.277100;0.880371
90.942131;-0.401367;-0.276123;0.876709
91.040146;-0.404297;-0.270264;0.879883
91.040283;-0.403564;-0.266846;0.877441
91.040375;-0.395264;-0.272461;0.879395
91.040466;-0.391846;-0.279297;0.882812
91.233566;-0.397949;-0.280029;0.879395
91.233734;-0.402100;-0.279541;0.876953
91.233833;-0.404297;-0.268311;0.875977
91.233917;-0.404053;-0.270264;0.882324
91.331184;-0.400879;-0.273438;0.883545
91.331322;-0.400635;-0.275146;0.879150
91.331413;-0.398926;-0.275879;0.875488
91.331497;-0.396240;-0.277588;0.876465
91.428673;-0.400146;-0.272217;0.880615
91.428810;-0.403320;-0.271484;0.882568
91.428909;-0.402100;-0.270508;0.879395
91.428993;-0.402100;-0.274414;0.877686
91.527870;-0.397461;-0.278809;0.875732
91.527992;-0.398682;-0.277588;0.880615
91.528084;-0.401611;-0.269775;0.882080
91.528168;-0.401855;-0.272217;0.881348
92.111916;-0.397461;-0.274658;0.876953
92.112068;-0.399170;-0.275391;0.876465
92.112167;-0.401855;-0.271240;0.881348
92.112251;-0.400635;-0.275391;0.879395
92.113525;-0.401367;-0.273438;0.879639
92.113632;-0.404541;-0.271484;0.879639
92.113716;-0.397217;-0.269043;0.877197
92.114204;-0.398926;-0.274902;0.879639
92.209007;-0.398926;-0.275879;0.880371
92.209137;-0.398926;-0.270020;0.876709
92.209229;-0.399658;-0.268799;0.876465
92.209320;-0.397949;-0.275391;0.879883
92.305649;-0.399414;-0.273438;0.880127
92.305756;-0.400879;-0.273926;0.878418
92.305817;-0.398438;-0.272949;0.876953
92.305870;-0.399170;-0.275879;0.878418
92.405647;-0.400146;-0.273926;0.883057
92.405746;-0.403320;-0.268799;0.878174
92.405815;-0.400391;-0.268311;0.875488
92.405869;-0.402344;-0.269043;0.882812
92.500359;-0.399414;-0.264404;0.882324
92.500443;-0.401855;-0.267090;0.877441
92.500481;-0.405518;-0.267334;0.879883
92.500526;-0.394775;-0.274414;0.879150
92.598145;-0.400146;-0.280273;0.880371
92.598267;-0.401123;-0.275635;0.876465
92.598328;-0.407471;-0.269043;0.881592
92.598389;-0.411133;-0.270020;0.887451
92.599747;-0.400635;-0.269287;0.875488
92.599838;-0.398926;-0.282715;0.875488
92.599899;-0.397217;-0.279297;0.880127
92.599968;-0.399170;-0.262939;0.880371
92.696411;-0.401611;-0.262695;0.881836
92.697159;-0.402100;-0.277344;0.874023
92.697296;-0.397217;-0.281006;0.871826
92.697388;-0.395508;-0.276611;0.877197
92.793602;-0.399902;-0.272705;0.878906
92.793739;-0.402344;-0.269775;0.880859
92.793839;-0.405029;-0.272949;0.883545
92.793930;-0.403076;-0.273682;0.879883
93.023308;-0.403320;-0.279053;0.880127
93.023369;-0.402100;-0.277588;0.878662
93.023430;-0.401611;-0.271240;0.882324
93.023453;-0.406006;-0.261230;0.886230
93.085045;-0.413818;-0.250732;0.881104
93.085091;-0.407959;-0.259766;0.874756
93.085114;-0.404297;-0.268555;0.873779
93.085129;-0.395020;-0.279297;0.875488
93.182709;-0.389893;-0.277344;0.874756
93.182755;-0.395996;-0.274658;0.880859
93.182777;-0.404541;-0.268311;0.886963
93.182800;-0.405762;-0.272949;0.882568
93.378326;-0.398926;-0.288574;0.876953
93.378418;-0.398438;-0.289307;0.872559
93.378494;-0.397949;-0.272949;0.879150
93.378548;-0.400146;-0.266602;0.884033
93.476639;-0.395996;-0.264648;0.882812
93.476768;-0.397461;-0.268311;0.876953
93.476868;-0.394287;-0.270996;0.879150
93.476952;-0.393799;-0.269043;0.876953
93.573441;-0.400635;-0.259033;0.881592
93.573586;-0.405029;-0.260254;0.883545
93.573677;-0.406494;-0.259033;0.881836
93.573769;-0.406006;-0.271240;0.881104
93.671341;-0.401611;-0.276367;0.881348
93.671478;-0.402832;-0.271729;0.881348
93.671570;-0.398438;-0.268799;0.878662
93.671654;-0.400391;-0.271484;0.883545
93.866493;-0.402344;-0.275391;0.880371
93.866646;-0.401367;-0.272461;0.876221
93.866737;-0.410889;-0.262207;0.878906
93.866852;-0.399414;-0.255127;0.881836
93.963593;-0.392090;-0.271240;0.882568
93.963745;-0.389893;-0.276123;0.878418
93.963837;-0.400635;-0.282715;0.879150
93.963928;-0.396240;-0.269287;0.877930
94.060951;-0.400146;-0.269287;0.883057
94.061096;-0.402100;-0.276367;0.884277
94.061188;-0.405518;-0.267334;0.878174
94.061272;-0.405762;-0.266357;0.878418
94.256302;-0.400391;-0.269531;0.880615
94.256454;-0.401367;-0.270508;0.880127
94.256546;-0.400879;-0.267578;0.875977
94.256630;-0.401855;-0.263672;0.880371
94.353989;-0.401611;-0.263916;0.884521
94.354126;-0.399902;-0.265869;0.882568
94.354218;-0.402100;-0.268799;0.881348
94.354301;-0.404785;-0.262207;0.882568
94.450905;-0.404541;-0.257568;0.882324
94.451050;-0.398438;-0.264404;0.878662
94.451141;-0.392090;-0.275879;0.875732
94.451225;-0.394287;-0.273438;0.881592
94.549881;-0.400146;-0.265137;0.883301
94.549995;-0.408936;-0.264160;0.883301
94.550079;-0.405273;-0.263672;0.884766
94.550423;-0.401611;-0.269287;0.884766
95.231178;-0.403809;-0.263916;0.885498
95.231781;-0.403320;-0.260742;0.884521
95.232323;-0.398926;-0.263672;0.878906
95.232986;-0.392822;-0.258789;0.876709
95.233421;-0.399170;-0.265625;0.885254
95.233528;-0.405029;-0.262451;0.881348
95.233612;-0.407227;-0.255371;0.875244
95.233932;-0.410645;-0.257568;0.878662
95.328354;-0.404053;-0.273682;0.880615
95.328499;-0.401123;-0.274170;0.879639
95.328583;-0.405762;-0.272705;0.882568
95.328674;-0.410645;-0.269287;0.885254
95.329544;-0.408936;-0.269043;0.879150
95.329674;-0.401367;-0.263916;0.875000
95.329765;-0.394531;-0.260010;0.885254
95.329849;-0.392334;-0.264404;0.873779
95.523781;-0.389160;-0.268066;0.868652
95.524246;-0.396484;-0.286865;0.883789
95.524345;-0.397461;-0.281250;0.884033
95.524429;-0.403320;-0.282959;0.881348
95.527298;-0.407227;-0.285889;0.881104
95.527382;-0.398438;-0.288574;0.876953
95.527466;-0.396240;-0.290527;0.887695
95.527550;-0.384277;-0.279053;0.876709
95.528503;-0.384521;-0.267334;0.871582
95.528603;-0.387695;-0.273438;0.881348
95.528687;-0.397217;-0.263916;0.882324
95.528770;-0.404053;-0.263184;0.877197
95.626358;-0.404297;-0.264160;0.877441
95.626472;-0.403320;-0.274414;0.869873
95.626564;-0.401855;-0.280762;0.873047
95.626648;-0.398926;-0.273926;0.877930
95.720253;-0.406494;-0.273682;0.883301
95.720375;-0.405762;-0.273682;0.879395
95.720642;-0.403320;-0.272705;0.877197
95.722595;-0.403564;-0.275391;0.880371
95.816299;-0.401611;-0.272949;0.878662
95.816460;-0.401611;-0.276367;0.873535
95.816551;-0.398438;-0.277832;0.879395
95.816643;-0.399414;-0.276123;0.881104
96.111237;-0.400635;-0.273926;0.877197
96.111305;-0.398926;-0.278320;0.875977
96.111320;-0.399170;-0.270508;0.882080
96.111343;-0.404541;-0.263184;0.887451
96.111732;-0.402588;-0.264160;0.877686
96.111755;-0.408447;-0.268799;0.879883
96.111771;-0.406738;-0.265381;0.881348
96.111801;-0.399414;-0.267090;0.883789
96.205376;-0.402832;-0.278564;0.880615
96.205429;-0.397217;-0.276611;0.872070
96.205444;-0.402100;-0.278809;0.878418
96.205467;-0.398193;-0.276855;0.877441
96.400932;-0.398682;-0.268555;0.880371
96.401077;-0.404785;-0.256836;0.885254
96.401176;-0.403320;-0.264648;0.879150
96.401260;-0.394775;-0.286621;0.875244
96.500214;-0.394775;-0.287598;0.871582
96.500366;-0.397217;-0.274902;0.877686
96.500465;-0.405518;-0.275146;0.885254
96.500549;-0.421387;-0.277588;0.885498
96.694115;-0.399414;-0.270752;0.876953
96.694580;-0.392822;-0.265869;0.879883
96.694679;-0.398682;-0.270020;0.885010
96.694763;-0.403320;-0.273193;0.879150
96.696014;-0.405762;-0.270752;0.877441
96.696121;-0.407959;-0.274658;0.876465
96.696205;-0.404053;-0.261475;0.877197
96.696289;-0.404785;-0.269531;0.877930
96.889336;-0.398926;-0.277832;0.876221
96.889481;-0.393066;-0.274414;0.874268
96.889572;-0.393066;-0.271240;0.882812
96.889679;-0.391602;-0.275391;0.885254
96.986588;-0.399658;-0.274414;0.878662
96.986816;-0.402588;-0.278320;0.874512
96.987015;-0.400146;-0.277588;0.889404
96.987221;-0.392334;-0.286377;0.880127
97.083748;-0.383789;-0.281982;0.872803
97.083878;-0.398682;-0.268311;0.879395
97.083969;-0.405029;-0.259033;0.884033
97.084061;-0.396973;-0.261475;0.893555
97.669647;-0.403320;-0.275391;0.880859
97.669891;-0.413330;-0.285889;0.861572
97.670097;-0.403076;-0.291748;0.861328
97.670570;-0.398438;-0.289551;0.885498
97.672493;-0.398438;-0.260254;0.890137
97.672600;-0.402344;-0.246582;0.890381
97.672691;-0.405518;-0.261230;0.875488
97.672768;-0.394043;-0.278320;0.868896
97.797287;-0.387939;-0.283691;0.869629
97.797432;-0.398193;-0.258301;0.888672
97.797523;-0.418457;-0.246338;0.885986
97.797615;-0.415527;-0.262939;0.868164
97.863907;-0.401611;-0.283447;0.874023
97.864174;-0.395752;-0.287354;0.884766
97.864273;-0.400635;-0.271973;0.885010
97.864365;-0.400391;-0.267822;0.874023
97.866844;-0.398926;-0.287598;0.871826
97.866951;-0.388916;-0.297119;0.877197
97.867035;-0.389648;-0.287598;0.883301
97.867119;-0.401855;-0.266602;0.884521
97.867203;-0.409912;-0.260010;0.881836
97.867287;-0.406494;-0.265137;0.879395
97.867416;-0.400879;-0.275635;0.881836
97.867500;-0.396240;-0.278076;0.874023
97.961853;-0.393555;-0.277100;0.870361
97.961990;-0.396484;-0.272705;0.878906
97.962090;-0.398682;-0.273682;0.882324
97.962173;-0.404541;-0.279053;0.881592
98.156265;-0.400391;-0.287109;0.875977
98.156418;-0.400879;-0.283691;0.878906
98.156509;-0.400635;-0.276855;0.879150
98.156616;-0.395020;-0.283203;0.875488
