timestamp;value
0.224011;0.704000
0.928011;0.721000
1.649011;0.806000
2.455011;0.823000
3.278011;0.876000
4.154011;0.794000
4.948011;0.753000
5.701011;0.760000
6.461011;0.718000
7.179011;0.694000
7.873011;0.647000
8.520011;0.626000
9.146011;0.637000
9.783011;0.656000
10.439011;0.663000
11.102011;0.712000
11.814011;0.680000
12.494011;0.665000
13.159011;0.638000
13.797011;0.621000
14.418011;0.643000
15.061011;0.623000
15.684011;0.648000
16.332010;0.651000
16.983011;0.626000
17.609011;0.641000
18.250011;0.632000
18.882011;0.659000
19.541012;0.672000
20.213011;0.693000
20.906012;0.695000
21.601011;0.703000
22.304010;0.696000
23.000011;0.690000
23.690012;0.669000
24.359011;0.650000
25.009010;0.645000
25.654011;0.666000
26.320011;0.687000
27.007011;0.703000
27.710011;0.725000
28.435011;0.803000
29.238010;0.811000
30.049011;0.779000
30.828011;0.767000
31.595011;0.734000
32.329010;0.720000
33.049011;0.716000
33.765011;0.735000
34.500011;0.769000
35.269012;0.780000
36.049011;0.798000
36.847012;0.815000
37.662010;0.770000
38.432011;0.723000
39.155010;0.693000
39.848011;0.711000
40.559010;0.740000
41.299011;0.777000
42.076012;0.762000
42.838013;0.768000
43.606010;0.779000
44.385010;0.742000
45.127010;0.729000
45.856010;0.742000
46.598011;0.741000
47.339012;0.723000
48.062012;0.747000
48.809010;0.755000
49.564011;0.723000
50.287010;0.731000
51.018013;0.719000
51.737011;0.739000
52.476009;0.700000
53.176010;0.686000
53.862011;0.706000
54.568012;0.728000
55.296013;0.727000
56.023010;0.767000
56.790012;0.781000
57.571011;0.805000
58.376011;0.790000
59.166012;0.783000
59.949013;0.799000
60.748013;0.791000
61.539013;0.761000
62.300011;0.768000
63.068012;0.769000
63.837009;0.772000
64.609009;0.736000
65.345009;0.754000
66.099014;0.776000
66.875008;0.864000
67.739014;0.878000
68.617012;0.836000
69.453011;0.807000
70.260010;0.758000
71.018013;0.732000
71.750008;0.743000
72.493011;0.745000
73.238014;0.768000
74.006012;0.763000
74.769012;0.835000
75.604012;0.799000
76.403008;0.744000
77.147011;0.761000
77.908012;0.767000
78.675011;0.733000
79.408012;0.694000
80.102013;0.686000
80.788010;0.690000
81.478012;0.737000
82.215012;0.774000
82.989014;0.738000
83.727013;0.776000
84.503014;0.769000
85.272011;0.735000
86.007011;0.729000
86.736008;0.746000
87.482010;0.763000
88.245010;0.734000
88.979012;0.753000
89.732010;0.763000
90.495010;0.740000
91.235008;0.765000
92.000008;0.769000
92.769012;0.763000
93.532013;0.750000
94.282013;0.759000
95.041008;0.755000
95.796013;0.736000
96.532013;0.740000
97.272011;0.732000
98.004013;0.716000
98.720009;0.706000
99.426010;0.710000
100.136009;0.660000
100.796013;0.655000
101.451012;0.699000
102.150009;0.713000
102.863014;0.717000
103.580009;0.735000
104.315010;0.717000
105.032013;0.708000
105.740013;0.682000
106.422012;0.698000
107.120010;0.702000
107.822014;0.720000
108.542007;0.738000
109.280014;0.759000
110.039009;0.791000
110.830009;0.773000
111.603012;0.730000
112.333008;0.742000
113.075012;0.784000
113.859009;0.785000
114.644012;0.752000
115.396011;0.762000
116.158012;0.778000
116.936012;0.740000
117.676010;0.733000
118.409012;0.732000
119.141014;0.729000
119.870010;0.704000
120.574013;0.715000
121.289009;0.736000
122.025009;0.741000
122.766014;0.708000
123.474014;0.707000
124.181015;0.689000
124.870010;0.691000
125.561012;0.678000
126.239014;0.702000
126.941010;0.726000
127.667007;0.729000
128.396011;0.729000
129.125015;0.739000
129.864014;0.706000
130.570007;0.687000
131.257004;0.692000
131.949005;0.688000
132.637009;0.680000
133.317017;0.690000
134.007004;0.711000
134.718018;0.721000
135.439011;0.710000
136.149017;0.710000
136.859009;0.720000
137.579010;0.706000
138.285004;0.710000
138.995010;0.720000
139.715012;0.738000
140.453018;0.715000
141.168015;0.723000
141.891006;0.734000
142.625015;0.702000
143.327011;0.693000
144.020004;0.711000
144.731018;0.710000
145.441010;0.698000
146.139008;0.719000
146.858017;0.722000
147.580017;0.727000
148.307007;0.716000
149.023010;0.713000
149.736008;0.711000
150.447006;0.699000
151.146011;0.710000
151.856018;0.708000
152.564011;0.706000
153.270004;0.706000
153.976013;0.719000
154.695007;0.724000
155.419006;0.730000
156.149017;0.718000
156.867004;0.725000
157.592010;0.716000
158.308014;0.704000
159.012009;0.716000
159.728012;0.713000
160.441010;0.701000
161.142014;0.692000
161.834015;0.706000
162.540009;0.727000
163.267014;0.724000
163.991013;0.739000
164.730011;0.741000
165.471008;0.752000
166.223007;0.751000
166.974014;0.728000
167.702011;0.743000
168.445007;0.709000
169.154007;0.681000
169.835007;0.680000
170.515015;0.703000
171.218018;0.701000
171.919006;0.708000
172.627014;0.681000
173.308014;0.651000
173.959015;0.676000
174.635010;0.698000
175.333008;0.691000
176.024017;0.684000
176.708008;0.676000
177.384018;0.660000
178.044006;0.663000
178.707016;0.692000
179.399017;0.692000
180.091003;0.698000
180.789017;0.711000
181.500015;0.718000
182.218018;0.729000
182.947006;0.707000
183.654007;0.724000
184.378006;0.735000
185.113007;0.751000
185.864014;0.742000
186.606018;0.770000
187.376007;0.778000
188.154007;0.778000
188.932007;0.735000
189.667007;0.744000
190.411011;0.741000
191.152008;0.724000
191.876007;0.705000
192.581009;0.721000
193.302017;0.740000
194.042007;0.762000
194.804016;0.759000
195.563004;0.778000
196.341003;0.784000
197.125015;0.778000
197.903015;0.736000
198.639008;0.724000
199.363007;0.712000
200.075012;0.700000
200.775009;0.692000
201.467010;0.708000
202.175018;0.731000
202.906006;0.719000
203.625015;0.744000
204.369003;0.768000
205.137009;0.770000
205.907013;0.753000
206.660004;0.752000
207.412018;0.743000
208.155014;0.737000
208.892014;0.731000
209.623016;0.756000
210.379013;0.786000
211.165009;0.772000
211.937012;0.757000
212.694016;0.763000
213.457016;0.774000
214.231018;0.736000
214.967010;0.742000
215.709015;0.708000
216.417007;0.709000
217.126007;0.696000
217.822006;0.686000
218.508011;0.686000
219.194016;0.715000
219.909012;0.726000
220.635010;0.725000
221.360016;0.704000
222.064011;0.717000
222.781006;0.724000
223.505005;0.711000
224.216003;0.709000
224.925018;0.725000
225.650009;0.746000
226.396011;0.725000
227.121017;0.747000
227.868011;0.744000
228.612015;0.743000
229.355011;0.720000
230.075012;0.692000
230.767014;0.670000
231.437012;0.655000
232.092010;0.651000
232.743011;0.686000
233.429016;0.712000
234.141006;0.766000
234.907013;0.777000
235.684006;0.784000
236.468018;0.749000
237.217010;0.737000
237.954010;0.737000
238.691010;0.747000
239.438004;0.747000
240.185013;0.717000
240.902008;0.725000
241.627014;0.743000
242.370010;0.741000
243.111008;0.721000
243.832016;0.704000
244.536011;0.724000
245.260010;0.734000
245.994003;0.714000
246.708008;0.734000
247.442017;0.712000
248.154007;0.711000
248.865005;0.681000
249.546005;0.694000
250.240005;0.695000
250.935013;0.709000
251.644012;0.692000
252.336014;0.715000
253.051010;0.720000
253.771011;0.727000
254.498016;0.724000
255.222015;0.726000
255.948013;0.738000
256.686005;0.728000
257.414001;0.703000
258.117004;0.709000
258.826019;0.711000
259.537018;0.714000
260.251007;0.702000
260.953003;0.709000
261.662018;0.725000
262.387024;0.746000
263.132996;0.743000
263.876007;0.735000
264.611023;0.724000
265.335022;0.712000
266.046997;0.681000
266.727997;0.698000
267.426025;0.705000
268.131012;0.736000
268.867004;0.731000
269.598022;0.750000
270.348022;0.768000
271.115997;0.730000
271.846008;0.730000
272.576019;0.739000
273.315002;0.750000
274.065002;0.726000
274.791016;0.740000
275.531006;0.739000
276.270020;0.725000
276.995026;0.716000
277.710999;0.731000
278.442017;0.738000
279.180023;0.725000
279.904999;0.737000
280.641998;0.734000
281.376007;0.733000
282.109009;0.706000
282.815002;0.716000
283.531006;0.713000
284.244019;0.730000
284.973999;0.731000
285.705017;0.748000
286.453003;0.755000
287.208008;0.728000
287.936005;0.738000
288.674011;0.716000
289.390015;0.697000
290.087006;0.688000
290.775024;0.702000
291.477020;0.727000
292.204010;0.710000
292.914001;0.723000
293.637024;0.722000
294.359009;0.733000
295.092010;0.706000
295.798004;0.732000
296.529999;0.736000
297.266022;0.748000
298.014008;0.727000
298.740997;0.739000
299.480011;0.732000
300.212006;0.727000
300.939026;0.729000
301.667999;0.719000
302.387024;0.689000
303.076019;0.673000
303.749023;0.669000
304.417999;0.661000
305.079010;0.655000
305.734009;0.631000
306.365021;0.615000
306.980011;0.626000
307.606018;0.651000
308.257019;0.651000
308.908020;0.669000
309.576996;0.684000
310.261017;0.699000
310.960022;0.679000
311.639008;0.688000
312.326996;0.685000
313.012024;0.685000
313.697021;0.674000
314.371002;0.691000
315.062012;0.696000
315.758026;0.717000
316.475006;0.706000
317.181000;0.703000
317.884003;0.709000
318.593018;0.716000
319.309021;0.703000
320.012024;0.700000
320.712006;0.699000
321.411011;0.716000
322.127014;0.712000
322.839020;0.717000
323.556000;0.735000
324.291016;0.731000
325.022003;0.730000
325.752014;0.736000
326.488007;0.756000
327.244019;0.744000
327.988007;0.715000
328.703003;0.730000
329.433014;0.756000
330.189026;0.770000
330.959015;0.750000
331.709015;0.736000
332.445007;0.732000
333.177002;0.733000
333.910004;0.763000
334.673004;0.759000
335.432007;0.796000
336.227997;0.745000
336.973022;0.679000
337.652008;0.660000
338.312012;0.641000
338.953003;0.617000
339.570007;0.592000
340.162018;0.574000
340.736023;0.574000
341.309998;0.587000
341.897003;0.614000
342.511017;0.651000
343.162018;0.671000
343.833008;0.696000
344.529022;0.672000
345.201019;0.639000
345.839996;0.641000
346.481018;0.644000
347.125000;0.646000
347.770996;0.642000
348.413025;0.633000
349.046021;0.622000
349.667999;0.603000
350.270996;0.594000
350.865021;0.579000
351.444000;0.569000
352.013000;0.554000
352.567017;0.562000
353.128998;0.575000
353.704010;0.573000
354.277008;0.586000
354.863007;0.590000
355.453003;0.586000
356.039001;0.589000
356.628021;0.583000
357.210999;0.577000
357.788025;0.583000
358.371002;0.591000
358.962006;0.581000
359.542999;0.579000
360.122009;0.583000
360.705017;0.588000
361.292999;0.593000
361.886017;0.583000
362.469025;0.583000
363.052002;0.575000
363.627014;0.578000
364.205017;0.575000
364.779999;0.561000
365.341003;0.564000
365.904999;0.559000
366.464020;0.556000
367.020020;0.558000
367.578003;0.562000
368.140015;0.552000
368.692017;0.550000
369.242004;0.547000
369.789001;0.535000
370.324005;0.532000
370.856018;0.531000
371.387024;0.544000
371.931000;0.548000
372.479004;0.546000
373.025024;0.550000
373.575012;0.555000
374.130005;0.549000
374.679016;0.562000
375.240997;0.567000
375.808014;0.588000
376.395996;0.591000
376.987000;0.614000
377.601013;0.611000
378.212006;0.606000
378.818024;0.596000
379.414001;0.585000
379.999023;0.584000
380.583008;0.580000
381.163025;0.579000
381.742004;0.582000
382.324005;0.574000
382.898010;0.583000
383.481018;0.583000
384.064026;0.565000
384.628998;0.573000
385.202026;0.596000
385.798004;0.584000
386.382019;0.586000
386.968018;0.576000
387.544006;0.575000
388.119019;0.567000
388.686005;0.564000
389.250000;0.564000
389.814026;0.573000
390.387024;0.587000
390.973999;0.595000
391.569000;0.606000
392.175018;0.603000
392.778015;0.604000
393.382019;0.607000
393.989014;0.592000
394.581024;0.600000
395.181000;0.600000
395.781006;0.598000
396.378998;0.587000
396.966003;0.573000
397.539001;0.575000
398.114014;0.586000
398.700012;0.595000
399.295013;0.609000
399.904022;0.612000
400.516022;0.606000
401.122009;0.605000
401.727020;0.595000
402.322021;0.584000
402.906006;0.581000
403.487000;0.576000
404.063019;0.564000
404.627014;0.566000
405.193024;0.562000
405.755005;0.565000
406.320007;0.576000
406.895996;0.601000
407.497009;0.616000
408.113007;0.616000
408.729004;0.585000
409.314026;0.571000
409.885010;0.562000
410.447021;0.548000
410.995026;0.467000
411.462006;0.573000
412.035004;0.518000
412.553009;0.517000
413.070007;0.511000
413.581024;0.509000
414.089996;0.512000
414.602020;0.513000
415.115021;0.514000
415.628998;0.506000
416.135010;0.512000
416.647003;0.501000
417.148010;0.504000
417.652008;0.502000
418.154022;0.507000
418.661011;0.511000
419.171997;0.507000
419.679016;0.513000
420.192017;0.516000
420.708008;0.521000
421.229004;0.512000
421.740997;0.520000
422.261017;0.528000
422.789001;0.531000
423.320007;0.537000
423.857025;0.535000
424.391998;0.527000
424.919006;0.524000
425.443024;0.524000
425.967010;0.521000
426.488007;0.520000
427.008026;0.521000
427.529022;0.530000
428.059021;0.518000
428.577026;0.519000
429.096008;0.505000
429.601013;0.502000
430.102997;0.503000
430.606018;0.497000
431.102997;0.490000
431.593018;0.487000
432.080017;0.490000
432.570007;0.485000
433.055023;0.489000
433.544006;0.493000
434.037018;0.492000
434.529022;0.490000
435.019012;0.494000
435.513000;0.490000
436.003021;0.490000
436.493011;0.491000
436.984009;0.492000
437.476013;0.491000
437.967010;0.485000
438.452026;0.484000
438.936005;0.490000
439.426025;0.496000
439.921997;0.498000
440.420013;0.498000
440.917999;0.495000
441.413025;0.484000
441.897003;0.486000
442.383026;0.482000
442.865021;0.477000
443.342010;0.473000
443.815002;0.463000
444.278015;0.465000
444.743011;0.468000
445.210999;0.464000
445.675018;0.464000
446.139008;0.467000
446.606018;0.463000
447.069000;0.420000
447.489014;0.508000
447.997009;0.464000
448.460999;0.461000
448.921997;0.466000
449.388000;0.471000
449.859009;0.468000
450.327026;0.467000
450.794006;0.475000
451.269012;0.470000
451.739014;0.474000
452.213013;0.360000
452.572998;0.577000
453.150024;0.462000
453.612000;0.309000
453.921021;0.629000
454.550018;0.466000
455.016022;0.469000
455.485016;0.474000
455.959015;0.475000
456.434021;0.479000
456.913025;0.480000
457.393005;0.481000
457.874023;0.483000
458.357025;0.475000
458.832001;0.476000
459.308014;0.475000
459.783020;0.470000
460.253021;0.473000
460.726013;0.470000
461.196014;0.467000
461.663025;0.469000
462.132019;0.475000
462.607025;0.471000
463.078003;0.483000
463.561005;0.474000
464.035004;0.472000
464.507019;0.482000
464.989014;0.479000
465.468018;0.481000
465.949005;0.484000
466.433014;0.481000
466.914001;0.477000
467.391022;0.486000
467.877014;0.499000
468.376007;0.500000
468.876007;0.491000
469.367004;0.494000
469.861023;0.493000
470.354004;0.500000
470.854004;0.505000
471.359009;0.495000
471.854004;0.501000
472.355011;0.490000
472.845001;0.488000
473.333008;0.485000
473.818024;0.480000
474.298004;0.481000
474.779022;0.482000
475.261017;0.477000
475.738007;0.475000
476.213013;0.476000
476.689026;0.467000
477.156006;0.464000
477.620026;0.467000
478.087006;0.466000
478.553009;0.461000
479.014008;0.460000
479.473999;0.464000
479.938019;0.472000
480.410004;0.478000
480.888000;0.483000
481.371002;0.478000
481.848999;0.486000
482.335022;0.486000
482.821014;0.490000
483.311005;0.494000
483.805023;0.491000
484.296021;0.490000
484.786011;0.491000
485.277008;0.486000
485.763000;0.489000
486.252014;0.489000
486.740997;0.483000
487.223999;0.482000
487.706024;0.481000
488.187012;0.480000
488.667023;0.487000
489.154022;0.482000
489.636017;0.486000
490.122009;0.492000
490.614014;0.507000
491.121002;0.512000
491.633026;0.525000
492.158020;0.512000
492.670013;0.519000
493.189026;0.521000
493.710022;0.526000
494.236023;0.524000
494.760010;0.514000
495.274017;0.510000
495.783997;0.503000
496.287018;0.503000
496.790009;0.505000
497.295013;0.495000
497.790009;0.494000
498.283997;0.489000
498.773010;0.489000
499.262024;0.489000
499.751007;0.486000
500.237000;0.488000
500.725006;0.491000
501.216003;0.485000
501.701019;0.483000
502.184021;0.483000
502.667023;0.475000
503.141998;0.474000
503.615997;0.474000
504.090027;0.470000
504.559998;0.466000
505.026001;0.469000
505.495026;0.472000
505.967010;0.464000
506.431000;0.458000
506.889008;0.465000
507.354004;0.463000
507.817017;0.464000
508.281006;0.458000
508.739014;0.458000
509.197021;0.461000
509.658020;0.459000
510.117004;0.455000
510.572021;0.459000
511.031006;0.458000
511.489014;0.453000
511.942017;0.455000
512.397034;0.456000
512.853027;0.451000
513.304016;0.452000
513.755981;0.452000
514.208008;0.446000
514.653992;0.445000
515.098999;0.448000
515.546997;0.451000
515.997986;0.447000
516.445007;0.450000
516.895020;0.450000
517.345032;0.449000
517.794006;0.445000
518.239014;0.440000
518.679016;0.442000
519.121033;0.439000
519.559998;0.443000
520.002991;0.447000
520.450012;0.456000
520.906006;0.458000
521.364014;0.455000
521.819031;0.456000
522.275024;0.453000
522.728027;0.453000
523.181030;0.453000
523.634033;0.454000
524.088013;0.453000
524.541016;0.459000
525.000000;0.458000
525.458008;0.458000
525.916016;0.462000
526.377991;0.463000
526.841003;0.467000
527.307983;0.470000
527.778015;0.474000
528.252014;0.476000
528.728027;0.476000
529.204041;0.469000
529.673035;0.470000
530.143005;0.463000
530.606018;0.462000
531.067993;0.462000
531.530029;0.458000
531.988037;0.457000
532.445007;0.458000
532.903015;0.457000
533.359985;0.453000
533.812988;0.455000
534.268005;0.454000
534.721985;0.452000
535.174011;0.442000
535.616028;0.443000
536.059021;0.441000
536.500000;0.437000
536.937012;0.438000
537.375000;0.440000
537.815002;0.435000
538.250000;0.434000
538.684021;0.435000
539.119019;0.434000
539.553040;0.436000
539.989014;0.436000
540.424988;0.439000
540.864014;0.438000
541.302002;0.433000
541.734985;0.434000
542.169006;0.436000
542.605042;0.439000
543.044006;0.440000
543.484009;0.443000
543.927002;0.437000
544.364014;0.437000
544.801025;0.436000
545.237000;0.430000
545.666992;0.430000
546.096985;0.432000
546.528992;0.433000
546.962036;0.429000
547.390991;0.429000
547.820007;0.433000
548.252991;0.437000
548.690002;0.435000
549.125000;0.436000
549.561035;0.438000
549.999023;0.437000
550.436035;0.437000
550.872986;0.437000
551.309998;0.437000
551.747009;0.437000
552.184021;0.435000
552.619019;0.437000
553.056030;0.438000
553.494019;0.434000
553.928040;0.433000
554.361023;0.438000
554.799011;0.436000
555.234985;0.431000
555.666016;0.429000
556.095032;0.429000
556.523987;0.432000
556.955994;0.429000
557.385010;0.426000
557.811035;0.427000
558.238037;0.429000
558.666992;0.424000
559.091003;0.423000
559.514038;0.425000
559.939026;0.429000
560.368042;0.426000
560.794006;0.427000
561.221008;0.428000
561.648987;0.438000
562.087036;0.432000
562.518982;0.435000
562.954041;0.441000
563.395020;0.436000
563.830994;0.438000
564.268982;0.437000
564.705994;0.437000
565.143005;0.430000
565.572998;0.427000
566.000000;0.430000
566.429993;0.433000
566.863037;0.428000
567.291016;0.425000
567.716003;0.422000
568.138000;0.421000
568.559021;0.423000
568.981995;0.426000
569.408020;0.425000
569.833008;0.430000
570.263000;0.436000
570.699036;0.439000
571.138000;0.442000
571.580017;0.445000
572.025024;0.448000
572.473022;0.454000
572.927002;0.451000
573.377991;0.450000
573.828003;0.457000
574.285034;0.458000
574.743042;0.459000
575.202026;0.455000
575.656982;0.454000
576.111023;0.458000
576.569031;0.456000
577.025024;0.458000
577.483032;0.460000
577.942993;0.460000
578.403015;0.452000
578.855042;0.455000
579.309998;0.452000
579.762024;0.446000
580.208008;0.445000
580.653015;0.445000
581.098022;0.453000
581.551025;0.457000
582.007996;0.470000
582.478027;0.481000
582.958984;0.474000
583.432983;0.476000
583.908997;0.481000
584.390015;0.481000
584.871033;0.486000
585.356995;0.486000
585.843018;0.482000
586.325012;0.485000
586.809998;0.478000
587.288025;0.467000
587.755005;0.463000
588.218018;0.458000
588.676025;0.451000
589.127014;0.453000
589.580017;0.454000
590.033997;0.454000
590.488037;0.458000
590.945984;0.461000
591.406982;0.461000
591.868042;0.460000
592.328003;0.461000
592.789001;0.463000
593.252014;0.456000
593.708008;0.457000
594.165039;0.458000
594.622986;0.453000
595.075989;0.454000
595.530029;0.454000
595.984009;0.451000
596.434998;0.452000
596.887024;0.453000
597.340027;0.453000
597.793030;0.455000
598.247986;0.452000
598.700012;0.450000
599.150024;0.447000
599.596985;0.448000
600.044983;0.450000
600.494995;0.450000
600.945007;0.450000
601.395020;0.448000
601.843018;0.442000
602.285034;0.437000
602.721985;0.439000
603.161011;0.435000
603.596008;0.436000
604.031982;0.436000
604.468018;0.428000
604.895996;0.428000
605.324036;0.429000
605.752991;0.428000
606.181030;0.423000
606.604004;0.425000
607.028992;0.428000
607.457031;0.422000
607.879028;0.421000
608.299988;0.422000
608.721985;0.418000
609.140015;0.416000
609.556030;0.418000
609.973999;0.416000
610.390015;0.412000
610.802002;0.414000
611.216003;0.414000
611.630005;0.409000
612.039001;0.411000
612.450012;0.414000
612.864014;0.409000
613.273010;0.408000
613.681030;0.411000
614.092041;0.412000
614.504028;0.411000
614.915039;0.411000
615.325989;0.413000
615.739014;0.409000
616.148010;0.415000
616.562988;0.413000
616.976013;0.413000
617.389038;0.415000
617.804016;0.418000
618.221985;0.415000
618.637024;0.416000
619.053040;0.417000
619.470032;0.420000
619.890015;0.422000
620.312012;0.416000
620.728027;0.419000
621.147034;0.417000
621.564026;0.418000
621.981995;0.419000
622.401001;0.422000
622.822998;0.422000
623.244995;0.423000
623.668030;0.418000
624.085999;0.418000
624.504028;0.420000
624.924011;0.416000
625.340027;0.418000
625.757996;0.416000
626.174011;0.418000
626.592041;0.416000
627.007996;0.419000
627.427002;0.422000
627.848999;0.427000
628.276001;0.432000
628.708008;0.437000
629.145020;0.435000
629.580017;0.437000
630.017029;0.444000
630.460999;0.439000
630.900024;0.440000
631.340027;0.441000
631.781006;0.434000
632.215027;0.432000
632.647034;0.424000
633.070984;0.427000
633.497986;0.422000
633.919983;0.421000
634.341003;0.422000
634.763000;0.421000
635.184021;0.420000
635.604004;0.418000
636.022034;0.415000
636.437012;0.415000
636.851990;0.411000
637.263000;0.412000
637.674988;0.412000
638.087036;0.412000
638.499023;0.411000
638.910034;0.409000
639.319031;0.412000
639.731018;0.410000
640.140991;0.409000
640.549988;0.409000
640.958984;0.407000
641.366028;0.405000
641.770996;0.406000
642.177002;0.402000
642.579041;0.399000
642.978027;0.401000
643.379028;0.400000
643.778992;0.398000
644.177002;0.398000
644.575012;0.398000
644.973022;0.391000
645.364014;0.393000
645.757019;0.391000
646.148010;0.392000
646.540039;0.387000
646.927002;0.385000
647.312012;0.386000
647.697998;0.389000
648.087036;0.383000
648.470032;0.384000
648.854004;0.382000
649.236023;0.388000
649.624023;0.391000
650.015015;0.391000
650.406006;0.390000
650.796021;0.393000
651.189026;0.393000
651.582031;0.390000
651.971985;0.391000
652.363037;0.395000
652.757996;0.398000
653.156006;0.397000
653.553040;0.399000
653.952026;0.403000
654.355042;0.403000
654.757996;0.405000
655.163025;0.408000
655.570984;0.406000
655.976990;0.410000
656.387024;0.407000
656.794006;0.412000
657.205994;0.412000
657.618042;0.410000
658.028015;0.408000
658.436035;0.415000
658.851013;0.411000
659.262024;0.410000
659.671997;0.410000
660.082031;0.410000
660.492004;0.410000
660.902039;0.408000
661.309998;0.412000
661.721985;0.414000
662.135986;0.416000
662.552002;0.417000
662.968994;0.415000
663.384033;0.416000
663.799988;0.416000
664.216003;0.418000
664.634033;0.416000
665.049988;0.422000
665.471985;0.422000
665.893982;0.426000
666.320007;0.424000
666.744019;0.425000
667.169006;0.425000
667.593994;0.427000
668.020996;0.422000
668.442993;0.419000
668.862000;0.417000
669.278992;0.421000
669.700012;0.421000
670.121033;0.422000
670.543030;0.420000
670.963013;0.421000
671.384033;0.427000
671.811035;0.422000
672.233032;0.420000
672.653015;0.420000
673.072998;0.428000
673.501038;0.423000
673.924011;0.423000
674.346985;0.426000
674.773010;0.430000
675.203003;0.427000
675.630005;0.424000
676.054016;0.437000
676.491028;0.432000
676.923035;0.434000
677.356995;0.432000
677.789001;0.443000
678.231995;0.440000
678.671997;0.436000
679.108032;0.435000
679.543030;0.444000
679.987000;0.443000
680.429993;0.440000
680.869995;0.444000
681.314026;0.445000
681.759033;0.464000
682.223022;0.458000
682.681030;0.458000
683.139038;0.455000
683.593994;0.456000
684.049988;0.457000
684.507019;0.462000
684.968994;0.464000
685.432983;0.465000
685.898010;0.461000
686.359009;0.459000
686.817993;0.460000
687.278015;0.461000
687.739014;0.464000
688.203003;0.461000
688.664001;0.459000
689.122986;0.468000
689.591003;0.483000
690.074036;0.501000
690.575012;0.507000
691.082031;0.502000
691.583984;0.500000
692.083984;0.504000
692.588013;0.505000
693.093018;0.505000
693.598022;0.504000
694.101990;0.500000
694.601990;0.488000
695.090027;0.480000
695.570007;0.484000
696.054016;0.487000
696.541016;0.499000
697.040039;0.505000
697.544983;0.503000
698.048035;0.503000
698.551025;0.496000
699.046997;0.496000
699.543030;0.486000
700.028992;0.502000
700.531006;0.521000
701.052002;0.523000
701.575012;0.508000
702.083008;0.523000
702.606018;0.530000
703.135986;0.526000
703.661987;0.514000
704.176025;0.512000
704.687988;0.528000
705.216003;0.526000
705.742004;0.528000
706.270020;0.520000
706.790039;0.530000
707.320007;0.526000
707.846008;0.523000
708.369019;0.519000
708.888000;0.534000
709.421997;0.550000
709.971985;0.550000
710.522034;0.539000
711.061035;0.533000
711.593994;0.538000
712.132019;0.533000
712.665039;0.525000
713.190002;0.525000
713.715027;0.542000
714.257019;0.550000
714.807007;0.551000
715.358032;0.570000
715.928040;0.585000
716.513000;0.580000
717.093018;0.580000
717.673035;0.586000
718.259033;0.581000
718.840027;0.567000
719.406982;0.568000
719.975037;0.566000
720.541016;0.555000
721.096008;0.550000
721.645996;0.564000
722.210022;0.581000
722.791016;0.574000
723.364990;0.584000
723.949036;0.599000
724.548035;0.592000
725.140015;0.578000
725.718018;0.589000
726.307007;0.580000
726.887024;0.571000
727.458008;0.576000
728.033997;0.584000
728.617981;0.570000
729.187988;0.551000
729.739014;0.548000
730.286987;0.566000
730.853027;0.589000
731.442017;0.570000
732.012024;0.556000
732.567993;0.561000
733.129028;0.583000
733.712036;0.589000
734.301025;0.580000
734.880981;0.587000
735.468018;0.591000
736.059021;0.580000
736.639038;0.569000
737.208008;0.580000
737.788025;0.588000
738.376038;0.581000
738.957031;0.581000
739.538025;0.595000
740.132996;0.596000
740.729004;0.590000
741.319031;0.603000
741.921997;0.622000
742.544006;0.603000
743.147034;0.615000
743.762024;0.623000
744.385010;0.607000
744.992004;0.604000
745.596008;0.617000
746.213013;0.614000
746.827026;0.591000
747.418030;0.595000
748.013000;0.594000
748.606995;0.591000
749.197998;0.584000
749.781982;0.603000
750.385010;0.616000
751.001038;0.605000
751.606018;0.608000
752.213989;0.608000
752.822021;0.596000
753.418030;0.590000
754.007996;0.599000
754.606995;0.601000
755.208008;0.597000
755.804993;0.597000
756.402039;0.605000
757.007019;0.608000
757.614990;0.602000
758.217041;0.610000
758.827026;0.621000
759.447998;0.603000
760.051025;0.616000
760.666992;0.626000
761.293030;0.613000
761.906006;0.612000
762.518005;0.602000
763.119995;0.595000
763.715027;0.577000
764.291992;0.575000
764.867004;0.588000
765.455017;0.593000
766.048035;0.600000
766.648010;0.593000
767.241028;0.600000
767.841003;0.597000
768.437988;0.593000
769.031006;0.595000
769.626038;0.597000
770.223022;0.600000
770.822998;0.589000
771.411987;0.596000
772.007996;0.608000
772.616028;0.603000
773.218994;0.597000
773.816040;0.617000
774.432983;0.621000
775.054016;0.609000
775.663025;0.619000
776.281982;0.621000
776.903015;0.608000
777.510986;0.590000
778.101013;0.593000
778.694031;0.598000
779.291992;0.598000
779.890015;0.596000
780.486023;0.617000
781.103027;0.637000
781.739990;0.625000
782.364990;0.648000
783.013000;0.648000
783.661011;0.635000
784.296021;0.625000
784.921021;0.622000
785.543030;0.617000
786.160034;0.606000
786.765991;0.614000
787.380005;0.615000
787.994995;0.607000
788.601990;0.611000
789.213013;0.618000
789.830994;0.623000
790.454041;0.619000
791.072998;0.612000
791.684998;0.620000
792.304993;0.617000
792.921997;0.619000
793.541016;0.618000
794.158997;0.636000
794.794983;0.650000
795.445007;0.648000
796.093018;0.641000
796.734009;0.652000
797.385986;0.634000
798.020020;0.628000
798.648010;0.633000
799.281006;0.636000
799.916992;0.629000
800.546021;0.629000
801.174988;0.641000
801.816040;0.638000
802.454041;0.639000
803.093018;0.664000
803.757019;0.665000
804.421997;0.644000
805.066040;0.637000
805.703003;0.633000
806.335999;0.628000
806.963989;0.630000
807.593994;0.644000
808.238037;0.675000
808.913025;0.703000
809.616028;0.692000
810.307983;0.675000
810.983032;0.647000
811.630005;0.626000
812.255981;0.615000
812.871033;0.610000
813.481018;0.594000
814.075012;0.584000
814.658997;0.581000
815.239990;0.585000
815.825012;0.600000
816.424988;0.627000
817.052002;0.624000
817.676025;0.604000
818.280029;0.592000
818.872009;0.591000
819.463013;0.604000
820.067017;0.610000
820.677002;0.605000
821.281982;0.598000
821.880005;0.596000
822.476013;0.603000
823.079041;0.614000
823.692993;0.639000
824.332031;0.682000
825.014038;0.716000
825.730042;0.751000
826.481018;0.771000
827.252014;0.756000
828.007996;0.720000
828.728027;0.694000
829.421997;0.667000
830.088989;0.654000
830.742981;0.650000
831.393005;0.646000
832.039001;0.634000
832.673035;0.629000
833.302002;0.633000
833.934998;0.653000
834.588013;0.665000
835.252991;0.658000
835.911011;0.644000
836.554993;0.651000
837.205994;0.666000
837.872009;0.657000
838.528992;0.636000
839.165039;0.630000
839.794983;0.624000
840.419006;0.617000
841.036011;0.616000
841.652039;0.628000
842.280029;0.632000
842.911987;0.625000
843.536987;0.624000
844.161011;0.626000
844.786987;0.631000
845.418030;0.624000
846.041992;0.626000
846.668030;0.624000
847.291992;0.618000
847.910034;0.616000
848.526001;0.622000
849.148010;0.620000
849.768005;0.617000
850.385010;0.611000
850.996033;0.622000
851.617981;0.622000
852.239990;0.614000
852.854004;0.600000
853.454041;0.599000
854.053040;0.604000
854.656982;0.606000
855.263000;0.606000
855.869019;0.609000
856.478027;0.618000
857.096008;0.618000
857.713989;0.613000
858.327026;0.604000
858.931030;0.602000
859.533020;0.598000
860.130981;0.599000
860.729980;0.593000
861.322998;0.596000
861.919006;0.604000
862.523010;0.610000
863.132996;0.612000
863.744995;0.610000
864.354980;0.620000
864.975037;0.623000
865.598022;0.615000
866.213013;0.605000
866.817993;0.607000
867.424988;0.605000
868.030029;0.606000
868.635986;0.598000
869.234009;0.604000
869.838013;0.616000
870.454041;0.617000
871.070984;0.616000
871.687012;0.615000
872.302002;0.618000
872.919983;0.614000
873.533997;0.609000
874.143005;0.609000
874.752014;0.616000
875.367981;0.615000
875.983032;0.615000
876.598022;0.620000
877.218018;0.640000
877.858032;0.650000
878.507996;0.654000
879.161987;0.648000
879.809998;0.633000
880.442993;0.624000
881.067017;0.616000
881.682983;0.613000
882.296021;0.618000
882.914001;0.622000
883.536011;0.628000
884.164001;0.644000
884.807983;0.660000
885.468018;0.667000
886.135010;0.666000
886.801025;0.668000
887.468994;0.656000
888.125000;0.643000
888.768005;0.639000
889.406982;0.640000
890.046997;0.633000
890.679993;0.625000
891.304993;0.632000
891.937012;0.639000
892.575989;0.639000
893.215027;0.641000
893.856018;0.665000
894.520996;0.657000
895.178040;0.654000
895.832031;0.635000
896.467041;0.638000
897.105042;0.632000
897.737000;0.625000
898.362000;0.625000
898.987000;0.629000
899.616028;0.646000
900.262024;0.668000
900.929993;0.674000
901.604004;0.660000
902.264038;0.636000
902.900024;0.626000
903.526001;0.611000
904.137024;0.596000
904.733032;0.581000
905.314026;0.568000
905.882019;0.569000
906.450989;0.577000
907.028015;0.581000
907.609009;0.579000
908.187988;0.580000
908.768005;0.587000
909.355042;0.606000
909.960999;0.621000
910.582031;0.639000
911.221008;0.677000
911.898010;0.687000
912.585022;0.687000
913.272034;0.674000
913.945984;0.657000
914.603027;0.653000
915.255981;0.649000
915.905029;0.641000
916.546021;0.642000
917.187988;0.639000
917.827026;0.654000
918.481018;0.661000
919.142029;0.657000
919.799011;0.655000
920.454041;0.648000
921.101990;0.649000
921.751038;0.647000
922.398010;0.643000
923.041016;0.632000
923.673035;0.636000
924.309021;0.644000
924.953003;0.641000
925.593994;0.643000
926.237000;0.654000
926.890991;0.671000
927.562012;0.663000
928.225037;0.655000
928.880005;0.659000
929.539001;0.655000
930.194031;0.649000
930.843018;0.640000
931.483032;0.643000
932.126038;0.651000
932.777039;0.647000
933.424011;0.657000
934.080994;0.663000
934.744019;0.661000
935.405029;0.661000
936.066040;0.660000
936.726013;0.666000
937.392029;0.665000
938.057007;0.664000
938.721008;0.658000
939.379028;0.657000
940.036011;0.663000
940.699036;0.657000
941.356018;0.658000
942.014038;0.662000
942.676025;0.662000
943.338013;0.660000
943.997986;0.668000
944.666016;0.674000
945.340027;0.666000
946.005981;0.658000
946.664001;0.651000
947.315002;0.646000
947.960999;0.643000
948.604004;0.640000
949.244019;0.644000
949.888000;0.652000
950.540039;0.653000
951.192993;0.650000
951.843018;0.654000
952.497009;0.656000
953.153015;0.650000
953.803040;0.641000
954.444031;0.639000
955.083008;0.637000
955.720032;0.634000
956.354004;0.634000
956.988037;0.640000
957.627991;0.632000
958.260010;0.639000
958.898987;0.637000
959.536011;0.630000
960.166016;0.629000
960.794983;0.628000
961.423035;0.621000
962.044006;0.635000
962.679016;0.643000
963.322021;0.649000
963.971008;0.641000
964.612000;0.642000
965.254028;0.637000
965.890991;0.628000
966.518982;0.625000
967.143982;0.623000
967.767029;0.626000
968.393005;0.623000
969.015991;0.616000
969.632019;0.612000
970.244019;0.614000
970.858032;0.613000
971.471008;0.598000
972.069031;0.600000
972.669006;0.607000
973.276001;0.619000
973.895020;0.623000
974.518005;0.620000
975.138000;0.617000
975.755005;0.612000
976.367004;0.606000
976.973022;0.585000
977.557983;0.579000
978.137024;0.585000
978.721985;0.588000
979.309998;0.593000
979.903015;0.599000
980.502014;0.610000
981.112000;0.614000
981.726013;0.612000
982.338013;0.614000
982.952026;0.621000
983.572998;0.627000
984.200012;0.624000
984.824036;0.625000
985.449036;0.627000
986.075989;0.631000
986.707031;0.629000
987.335999;0.622000
987.958008;0.623000
988.580994;0.625000
989.205994;0.623000
989.829041;0.620000
990.449036;0.615000
991.064026;0.618000
991.682007;0.614000
992.296021;0.609000
992.905029;0.605000
993.510010;0.611000
994.121033;0.622000
994.742981;0.618000
995.361023;0.620000
995.981018;0.615000
996.596008;0.622000
997.218018;0.618000
997.835999;0.616000
998.452026;0.607000
999.059021;0.606000
999.665039;0.595000
1000.260010;0.595000
1000.855042;0.593000
1001.447998;0.606000
1002.054016;0.606000
1002.660034;0.609000
1003.268982;0.612000
1003.880981;0.627000
1004.507996;0.626000
1005.134033;0.628000
1005.762024;0.631000
1006.393005;0.637000
1007.030029;0.631000
1007.661011;0.619000
1008.280029;0.616000
1008.895996;0.608000
1009.504028;0.608000
1010.112000;0.603000
1010.715027;0.602000
1011.317017;0.594000
1011.911011;0.591000
1012.502014;0.591000
1013.093018;0.590000
1013.682983;0.592000
1014.275024;0.587000
1014.862000;0.600000
1015.462036;0.623000
1016.085022;0.638000
1016.723022;0.636000
1017.359009;0.629000
1017.988037;0.633000
1018.621033;0.632000
1019.252991;0.624000
1019.877014;0.618000
1020.494995;0.610000
1021.105042;0.615000
1021.720032;0.625000
1022.345032;0.625000
1022.970032;0.625000
1023.595032;0.632000
1024.227051;0.625000
1024.852051;0.627000
1025.479004;0.624000
1026.103027;0.628000
1026.730957;0.626000
1027.357056;0.632000
1027.989014;0.630000
1028.619019;0.629000
1029.248047;0.635000
1029.883057;0.633000
1030.515991;0.633000
1031.149048;0.635000
1031.784058;0.643000
1032.427002;0.640000
1033.067017;0.635000
1033.702026;0.640000
1034.342041;0.638000
1034.979980;0.633000
1035.613037;0.638000
1036.250977;0.629000
1036.880005;0.632000
1037.511963;0.628000
1038.140015;0.633000
1038.773071;0.630000
1039.402954;0.632000
1040.035034;0.631000
1040.666016;0.639000
1041.305054;0.640000
1041.945068;0.637000
1042.582031;0.640000
1043.222046;0.640000
1043.862061;0.633000
1044.494995;0.630000
1045.125000;0.626000
1045.750977;0.628000
1046.379028;0.627000
1047.005981;0.630000
1047.635986;0.633000
1048.269043;0.635000
1048.904053;0.637000
1049.541016;0.635000
1050.176025;0.631000
1050.807007;0.635000
1051.442017;0.628000
1052.070068;0.629000
1052.698975;0.633000
1053.332031;0.639000
1053.971069;0.642000
1054.613037;0.645000
1055.258057;0.639000
1055.896973;0.645000
1056.541992;0.634000
1057.176025;0.634000
1057.810059;0.634000
1058.443970;0.639000
1059.083008;0.654000
1059.737061;0.655000
1060.391968;0.649000
1061.041016;0.659000
1061.699951;0.655000
1062.354980;0.640000
1062.994995;0.637000
1063.631958;0.632000
1064.264038;0.634000
1064.898071;0.631000
1065.529053;0.639000
1066.167969;0.646000
1066.813965;0.661000
1067.474976;0.656000
1068.130981;0.638000
1068.769043;0.625000
1069.394043;0.625000
1070.019043;0.625000
1070.644043;0.626000
1071.270020;0.626000
1071.895996;0.625000
1072.520996;0.627000
1073.148071;0.617000
1073.765015;0.609000
1074.374023;0.604000
1074.978027;0.612000
1075.589966;0.631000
1076.221069;0.646000
1076.867065;0.641000
1077.508057;0.648000
1078.156006;0.662000
1078.817993;0.669000
1079.487061;0.657000
1080.144043;0.654000
1080.797974;0.652000
1081.449951;0.648000
1082.098022;0.639000
1082.737061;0.632000
1083.369019;0.634000
1084.003052;0.632000
1084.635010;0.638000
1085.273071;0.628000
1085.901001;0.630000
1086.531006;0.631000
1087.161987;0.637000
1087.799072;0.641000
1088.440063;0.639000
1089.078979;0.635000
1089.713989;0.638000
1090.352051;0.637000
1090.989014;0.631000
1091.619995;0.630000
1092.250000;0.633000
1092.883057;0.641000
1093.524048;0.641000
1094.165039;0.645000
1094.810059;0.637000
1095.447021;0.644000
1096.091064;0.638000
1096.729004;0.626000
1097.354980;0.626000
1097.980957;0.633000
1098.614014;0.639000
1099.253052;0.634000
1099.886963;0.625000
1100.511963;0.625000
1101.136963;0.635000
1101.771973;0.636000
1102.407959;0.644000
1103.052002;0.652000
1103.703979;0.657000
1104.360962;0.647000
1105.008057;0.643000
1105.651001;0.634000
1106.285034;0.632000
1106.916992;0.627000
1107.544067;0.630000
1108.174072;0.638000
1108.812012;0.642000
1109.453979;0.642000
1110.096069;0.645000
1110.740967;0.657000
1111.398071;0.656000
1112.053955;0.649000
1112.703003;0.640000
1113.343018;0.634000
1113.977051;0.632000
1114.609009;0.626000
1115.234985;0.625000
1115.859985;0.633000
1116.493042;0.642000
1117.135010;0.638000
1117.773071;0.632000
1118.405029;0.638000
1119.042969;0.636000
1119.678955;0.626000
1120.305054;0.625000
1120.930054;0.629000
1121.558960;0.632000
1122.191040;0.625000
1122.816040;0.625000
1123.441040;0.623000
1124.063965;0.626000
1124.690063;0.632000
1125.322021;0.626000
1125.947998;0.627000
1126.574951;0.627000
1127.202026;0.624000
1127.826050;0.621000
1128.447021;0.613000
1129.060059;0.610000
1129.670044;0.609000
1130.279053;0.609000
1130.888062;0.609000
1131.497070;0.615000
1132.112061;0.620000
1132.732056;0.622000
1133.354004;0.619000
1133.973022;0.621000
1134.593994;0.620000
1135.213989;0.615000
1135.828979;0.613000
1136.442017;0.615000
1137.057007;0.611000
1137.667969;0.610000
1138.277954;0.605000
1138.883057;0.603000
1139.485962;0.609000
1140.094971;0.617000
1140.712036;0.624000
1141.336060;0.623000
1141.958984;0.618000
1142.577026;0.625000
1143.202026;0.624000
1143.826050;0.619000
1144.445068;0.620000
1145.065063;0.611000
1145.676025;0.605000
1146.281006;0.590000
1146.870972;0.578000
1147.448975;0.567000
1148.015991;0.562000
1148.578003;0.563000
1149.140991;0.564000
1149.704956;0.566000
1150.270996;0.573000
1150.843994;0.583000
1151.427002;0.593000
1152.020020;0.604000
1152.624023;0.608000
1153.232056;0.609000
1153.841064;0.612000
1154.453003;0.588000
1155.041016;0.583000
1155.624023;0.586000
1156.209961;0.589000
1156.799072;0.598000
1157.396973;0.603000
1158.000000;0.614000
1158.614014;0.619000
1159.233032;0.616000
1159.848999;0.618000
1160.467041;0.613000
1161.079956;0.609000
1161.688965;0.612000
1162.301025;0.613000
1162.914062;0.609000
1163.523071;0.616000
1164.139038;0.623000
1164.761963;0.634000
1165.395996;0.636000
1166.031982;0.621000
1166.652954;0.618000
1167.270996;0.610000
1167.880981;0.616000
1168.497070;0.635000
1169.131958;0.636000
1169.768066;0.640000
1170.407959;0.638000
1171.046021;0.642000
1171.687988;0.630000
1172.317993;0.620000
1172.937988;0.616000
1173.553955;0.617000
1174.171021;0.609000
1174.780029;0.611000
1175.390991;0.610000
1176.000977;0.617000
1176.618042;0.626000
1177.244019;0.626000
1177.869995;0.629000
1178.499023;0.632000
1179.130981;0.626000
1179.756958;0.619000
1180.375977;0.615000
1180.990967;0.618000
1181.609009;0.624000
1182.233032;0.625000
1182.858032;0.625000
1183.483032;0.624000
1184.107056;0.625000
1184.732056;0.630000
1185.362061;0.629000
1185.990967;0.631000
1186.622070;0.627000
1187.249023;0.628000
1187.876953;0.621000
1188.498047;0.621000
1189.119019;0.624000
1189.743042;0.630000
1190.373047;0.629000
1191.001953;0.626000
1191.628052;0.626000
1192.254028;0.624000
1192.878052;0.612000
1193.489990;0.611000
1194.100952;0.604000
1194.704956;0.606000
1195.311035;0.605000
1195.916016;0.607000
1196.523071;0.617000
1197.140015;0.624000
1197.764038;0.632000
1198.395996;0.630000
1199.026001;0.628000
1199.654053;0.628000
1200.281982;0.625000
1200.906982;0.620000
1201.526978;0.617000
1202.144043;0.607000
1202.750977;0.611000
1203.362061;0.620000
1203.982056;0.627000
1204.609009;0.639000
1205.248047;0.656000
1205.904053;0.668000
1206.572021;0.661000
1207.233032;0.656000
1207.889038;0.647000
1208.536011;0.639000
1209.175049;0.634000
1209.808960;0.632000
1210.441040;0.631000
1211.072021;0.641000
1211.713013;0.630000
1212.343018;0.632000
1212.974976;0.628000
1213.603027;0.628000
1214.230957;0.628000
1214.859009;0.639000
1215.498047;0.661000
1216.159058;0.675000
1216.833984;0.666000
1217.500000;0.647000
1218.146973;0.632000
1218.779053;0.625000
1219.404053;0.621000
1220.025024;0.616000
1220.640991;0.624000
1221.265015;0.634000
1221.899048;0.649000
1222.547974;0.665000
1223.213013;0.662000
1223.875000;0.660000
1224.535034;0.662000
1225.197021;0.671000
1225.868042;0.660000
1226.527954;0.657000
1227.185059;0.650000
1227.834961;0.645000
1228.479980;0.639000
1229.119019;0.638000
1229.756958;0.634000
1230.390991;0.630000
1231.020996;0.629000
1231.650024;0.631000
1232.281006;0.629000
1232.910034;0.637000
1233.546997;0.627000
1234.174072;0.630000
1234.803955;0.626000
1235.430054;0.623000
1236.052979;0.616000
1236.669067;0.607000
1237.276001;0.606000
1237.881958;0.616000
1238.498047;0.613000
1239.110962;0.617000
1239.728027;0.618000
1240.346069;0.618000
1240.963989;0.620000
1241.583984;0.615000
1242.198975;0.618000
1242.817017;0.620000
1243.437012;0.614000
1244.051025;0.607000
1244.657959;0.608000
1245.265991;0.611000
1245.876953;0.616000
1246.493042;0.616000
1247.109009;0.618000
1247.727051;0.610000
1248.337036;0.607000
1248.943970;0.597000
1249.541016;0.586000
1250.126953;0.579000
1250.706055;0.575000
1251.281006;0.579000
1251.859985;0.594000
1252.453979;0.581000
1253.035034;0.582000
1253.617065;0.593000
1254.209961;0.595000
1254.805054;0.602000
1255.406982;0.607000
1256.014038;0.612000
1256.625977;0.609000
1257.234985;0.615000
1257.849976;0.614000
1258.463989;0.621000
1259.084961;0.636000
1259.721069;0.635000
1260.355957;0.651000
1261.006958;0.660000
1261.666992;0.679000
1262.346069;0.656000
1263.001953;0.662000
1263.664062;0.659000
1264.322998;0.654000
1264.977051;0.654000
1265.630981;0.642000
1266.273071;0.642000
1266.915039;0.654000
1267.568970;0.651000
1268.219971;0.651000
1268.870972;0.663000
1269.534058;0.657000
1270.191040;0.661000
1270.852051;0.643000
1271.494995;0.639000
1272.134033;0.640000
1272.774048;0.653000
1273.427002;0.649000
1274.076050;0.660000
1274.735962;0.669000
1275.405029;0.686000
1276.091064;0.698000
1276.789062;0.670000
1277.458984;0.670000
1278.129028;0.655000
1278.784058;0.648000
1279.432007;0.641000
1280.072998;0.634000
1280.707031;0.623000
1281.329956;0.617000
1281.947021;0.608000
1282.555054;0.583000
1283.138062;0.584000
1283.722046;0.578000
1284.300049;0.593000
1284.893066;0.620000
1285.513062;0.633000
1286.145996;0.638000
1286.784058;0.622000
1287.406006;0.641000
1288.046997;0.655000
1288.702026;0.652000
1289.354004;0.662000
1290.015991;0.651000
1290.666992;0.641000
1291.307983;0.637000
1291.945068;0.621000
1292.566040;0.611000
1293.177002;0.589000
1293.765991;0.585000
1294.350952;0.575000
1294.926025;0.566000
1295.492065;0.563000
1296.055054;0.561000
1296.615967;0.556000
1297.171997;0.545000
1297.717041;0.538000
1298.255005;0.541000
1298.796021;0.544000
1299.339966;0.564000
1299.904053;0.591000
1300.494995;0.600000
1301.094971;0.587000
1301.682007;0.590000
1302.271973;0.594000
1302.865967;0.606000
1303.472046;0.625000
1304.097046;0.638000
1304.734985;0.642000
1305.376953;0.625000
1306.001953;0.620000
1306.622070;0.611000
1307.233032;0.609000
1307.842041;0.604000
1308.446045;0.608000
1309.053955;0.618000
1309.671997;0.623000
1310.295044;0.620000
1310.915039;0.618000
1311.532959;0.620000
1312.152954;0.627000
1312.780029;0.632000
1313.411987;0.647000
1314.058960;0.660000
1314.718994;0.651000
1315.369995;0.634000
1316.004028;0.631000
1316.635010;0.622000
1317.256958;0.611000
1317.868042;0.620000
1318.488037;0.625000
1319.113037;0.634000
1319.747070;0.634000
1320.380981;0.650000
1321.031006;0.658000
1321.688965;0.661000
1322.349976;0.656000
1323.005981;0.661000
1323.666992;0.655000
1324.322021;0.648000
1324.969971;0.644000
1325.614014;0.643000
1326.256958;0.640000
1326.896973;0.636000
1327.532959;0.636000
1328.169067;0.640000
1328.808960;0.642000
1329.451050;0.644000
1330.094971;0.636000
1330.730957;0.641000
1331.372070;0.652000
1332.024048;0.641000
1332.665039;0.637000
1333.302002;0.636000
1333.937988;0.623000
1334.561035;0.625000
1335.186035;0.615000
1335.801025;0.627000
1336.427979;0.635000
1337.062988;0.633000
1337.696045;0.634000
1338.329956;0.654000
1338.984009;0.637000
1339.620972;0.642000
1340.263062;0.644000
1340.906982;0.640000
1341.546997;0.631000
1342.177979;0.628000
1342.806030;0.625000
1343.431030;0.634000
1344.065063;0.623000
1344.687988;0.625000
1345.312988;0.629000
1345.942017;0.633000
1346.574951;0.628000
1347.203003;0.639000
1347.842041;0.651000
1348.493042;0.666000
1349.159058;0.662000
1349.821045;0.669000
1350.489990;0.669000
1351.159058;0.652000
1351.811035;0.651000
1352.462036;0.638000
1353.099976;0.639000
1353.739014;0.632000
1354.370972;0.639000
1355.010010;0.650000
1355.660034;0.669000
1356.328979;0.661000
1356.989990;0.666000
1357.656006;0.665000
1358.321045;0.662000
1358.983032;0.664000
1359.646973;0.656000
1360.302979;0.660000
1360.963013;0.647000
1361.609985;0.650000
1362.260010;0.653000
1362.912964;0.670000
1363.583008;0.661000
1364.244019;0.673000
1364.916992;0.674000
1365.591064;0.669000
1366.260010;0.664000
1366.924072;0.662000
1367.586060;0.666000
1368.251953;0.654000
1368.906006;0.682000
1369.588013;0.684000
1370.271973;0.674000
1370.946045;0.650000
1371.596069;0.634000
1372.229980;0.629000
1372.859009;0.655000
1373.514038;0.676000
1374.190063;0.666000
1374.855957;0.657000
1375.513062;0.659000
1376.171997;0.663000
1376.834961;0.650000
1377.484985;0.650000
1378.135010;0.643000
1378.777954;0.637000
1379.415039;0.623000
1380.037964;0.629000
1380.666992;0.625000
1381.291992;0.641000
1381.932983;0.651000
1382.583984;0.660000
1383.244019;0.664000
1383.907959;0.659000
1384.567017;0.661000
1385.228027;0.647000
1385.875000;0.642000
1386.516968;0.637000
1387.154053;0.627000
1387.781006;0.627000
1388.407959;0.631000
1389.039062;0.640000
1389.678955;0.628000
1390.307007;0.626000
1390.932983;0.616000
1391.549072;0.604000
1392.152954;0.596000
1392.749023;0.593000
1393.342041;0.607000
1393.948975;0.612000
1394.561035;0.607000
1395.167969;0.598000
1395.765991;0.601000
1396.367065;0.592000
1396.958984;0.586000
1397.545044;0.578000
1398.123047;0.579000
1398.702026;0.588000
1399.290039;0.604000
1399.894043;0.619000
1400.513062;0.641000
1401.154053;0.672000
1401.826050;0.691000
1402.516968;0.685000
1403.202026;0.659000
1403.860962;0.646000
1404.506958;0.625000
1405.131958;0.609000
1405.740967;0.604000
1406.344971;0.614000
1406.958984;0.624000
1407.583008;0.639000
1408.222046;0.651000
1408.873047;0.666000
1409.539062;0.671000
1410.209961;0.657000
1410.867065;0.660000
1411.526978;0.664000
1412.191040;0.666000
1412.857056;0.673000
1413.530029;0.675000
1414.204956;0.688000
1414.893066;0.706000
1415.598999;0.682000
1416.281006;0.666000
1416.947021;0.655000
1417.602051;0.661000
1418.263062;0.669000
1418.932007;0.654000
1419.586060;0.652000
1420.238037;0.654000
1420.891968;0.654000
1421.546021;0.639000
1422.185059;0.635000
1422.820068;0.643000
1423.463013;0.646000
1424.109009;0.666000
1424.775024;0.669000
1425.443970;0.675000
1426.119019;0.670000
1426.789062;0.672000
1427.461060;0.657000
1428.118042;0.649000
1428.766968;0.644000
1429.411011;0.651000
1430.062012;0.658000
1430.719971;0.651000
1431.370972;0.653000
1432.024048;0.661000
1432.685059;0.672000
1433.357056;0.688000
1434.045044;0.669000
1434.713989;0.669000
1435.383057;0.653000
1436.036011;0.646000
1436.682007;0.670000
1437.352051;0.703000
1438.055054;0.716000
1438.770996;0.716000
1439.487061;0.706000
1440.192993;0.703000
1440.895996;0.680000
1441.576050;0.665000
1442.240967;0.653000
1442.894043;0.641000
1443.535034;0.647000
1444.182007;0.666000
1444.848022;0.693000
1445.541016;0.724000
1446.265015;0.738000
1447.003052;0.729000
1447.732056;0.722000
1448.453979;0.701000
1449.155029;0.695000
1449.849976;0.666000
1450.515991;0.668000
1451.183960;0.672000
1451.855957;0.696000
1452.552002;0.677000
1453.229004;0.684000
1453.912964;0.691000
1454.604004;0.668000
1455.271973;0.657000
1455.928955;0.640000
1456.568970;0.620000
1457.188965;0.607000
1457.796021;0.599000
1458.395020;0.629000
1459.024048;0.659000
1459.682983;0.687000
1460.369995;0.690000
1461.060059;0.671000
1461.730957;0.679000
1462.410034;0.676000
1463.086060;0.676000
1463.761963;0.681000
1464.442993;0.685000
1465.128052;0.699000
1465.827026;0.696000
1466.523071;0.712000
1467.234985;0.716000
1467.951050;0.748000
1468.698975;0.735000
1469.433960;0.726000
1470.160034;0.708000
1470.868042;0.693000
1471.561035;0.680000
1472.240967;0.667000
1472.907959;0.668000
1473.576050;0.667000
1474.243042;0.674000
1474.916992;0.663000
1475.579956;0.676000
1476.255981;0.681000
1476.937012;0.692000
1477.629028;0.683000
1478.312012;0.684000
1478.995972;0.676000
1479.671997;0.659000
1480.331055;0.639000
1480.969971;0.636000
1481.605957;0.639000
1482.244995;0.650000
1482.895020;0.662000
1483.557007;0.661000
1484.218018;0.668000
1484.885986;0.674000
1485.560059;0.668000
1486.228027;0.672000
1486.900024;0.663000
1487.562988;0.657000
1488.219971;0.652000
1488.872070;0.658000
1489.530029;0.665000
1490.195068;0.677000
1490.872070;0.666000
1491.537964;0.672000
1492.209961;0.666000
1492.875977;0.666000
1493.541992;0.661000
1494.203003;0.661000
1494.864014;0.661000
1495.525024;0.662000
1496.187012;0.646000
1496.833008;0.650000
1497.483032;0.650000
1498.133057;0.658000
1498.791016;0.647000
1499.437988;0.650000
1500.088013;0.642000
1500.729980;0.639000
1501.369019;0.631000
1502.000000;0.620000
1502.619995;0.619000
1503.239014;0.624000
1503.863037;0.626000
1504.489014;0.623000
1505.112061;0.625000
1505.737061;0.632000
1506.369019;0.625000
1506.994019;0.611000
1507.604980;0.601000
1508.206055;0.590000
1508.796021;0.585000
1509.380981;0.594000
1509.974976;0.610000
1510.584961;0.612000
1511.197021;0.608000
1511.805054;0.611000
1512.416016;0.615000
1513.031006;0.616000
1513.646973;0.625000
1514.271973;0.630000
1514.901978;0.620000
1515.521973;0.619000
1516.140991;0.614000
1516.755005;0.623000
1517.378052;0.612000
1517.989990;0.610000
1518.599976;0.590000
1519.190063;0.584000
1519.774048;0.595000
1520.369019;0.618000
1520.987061;0.634000
1521.620972;0.641000
1522.261963;0.636000
1522.898071;0.631000
1523.529053;0.637000
1524.166016;0.630000
1524.796021;0.629000
1525.425049;0.626000
1526.051025;0.643000
1526.693970;0.644000
1527.338013;0.653000
1527.990967;0.647000
1528.638062;0.645000
1529.282959;0.651000
1529.933960;0.654000
1530.588013;0.655000
1531.243042;0.643000
1531.885986;0.618000
1532.504028;0.612000
1533.115967;0.617000
1533.733032;0.629000
1534.362061;0.638000
1535.000000;0.627000
1535.626953;0.614000
1536.240967;0.601000
1536.842041;0.588000
1537.430054;0.588000
1538.018066;0.606000
1538.624023;0.658000
1539.281982;0.694000
1539.975952;0.710000
1540.686035;0.726000
1541.411987;0.718000
1542.130005;0.686000
1542.816040;0.654000
1543.469971;0.635000
1544.104980;0.611000
1544.716064;0.601000
1545.317017;0.618000
1545.935059;0.641000
1546.576050;0.653000
1547.229004;0.652000
1547.880981;0.645000
1548.526001;0.648000
1549.174072;0.636000
1549.810059;0.632000
1550.442017;0.630000
1551.072021;0.630000
1551.702026;0.631000
1552.333008;0.629000
1552.962036;0.640000
1553.602051;0.664000
1554.265991;0.702000
1554.968018;0.733000
1555.701050;0.748000
1556.448975;0.755000
1557.203979;0.727000
1557.931030;0.699000
1558.630005;0.672000
1559.302002;0.658000
1559.959961;0.657000
1560.617065;0.669000
1561.286011;0.707000
1561.993042;0.723000
1562.716064;0.721000
1563.437012;0.706000
1564.143066;0.694000
1564.837036;0.679000
1565.515991;0.675000
1566.191040;0.649000
1566.839966;0.641000
1567.480957;0.628000
1568.109009;0.629000
1568.738037;0.618000
1569.355957;0.632000
1569.988037;0.628000
1570.615967;0.636000
1571.251953;0.625000
1571.876953;0.633000
1572.510010;0.638000
1573.148071;0.656000
1573.803955;0.673000
1574.477051;0.674000
1575.151001;0.683000
1575.833984;0.689000
1576.523071;0.697000
1577.219971;0.683000
1577.902954;0.685000
1578.588013;0.680000
1579.268066;0.681000
1579.948975;0.663000
1580.612061;0.655000
1581.266968;0.666000
1581.932983;0.678000
1582.610962;0.664000
1583.275024;0.657000
1583.932007;0.664000
1584.596069;0.670000
1585.265991;0.673000
1585.938965;0.669000
1586.608032;0.647000
1587.255005;0.638000
1587.893066;0.633000
1588.526001;0.640000
1589.166016;0.640000
1589.806030;0.627000
1590.432983;0.627000
1591.060059;0.639000
1591.698975;0.661000
1592.359985;0.681000
1593.041016;0.667000
1593.708008;0.647000
1594.354980;0.631000
1594.985962;0.609000
1595.594971;0.599000
1596.193970;0.598000
1596.791992;0.602000
1597.394043;0.626000
1598.020020;0.647000
1598.666992;0.694000
1599.360962;0.690000
1600.051025;0.729000
1600.780029;0.715000
1601.494995;0.710000
1602.204956;0.675000
1602.880005;0.672000
1603.552002;0.667000
1604.218994;0.658000
1604.876953;0.638000
1605.515015;0.613000
1606.128052;0.614000
1606.742065;0.620000
1607.362061;0.645000
1608.006958;0.654000
1608.661011;0.665000
1609.326050;0.656000
1609.982056;0.649000
1610.630981;0.625000
1611.255981;0.625000
1611.880981;0.621000
1612.501953;0.619000
1613.120972;0.616000
1613.737061;0.629000
1614.365967;0.633000
1614.999023;0.656000
1615.655029;0.652000
1616.307007;0.672000
1616.979004;0.680000
1617.659058;0.686000
1618.344971;0.680000
1619.025024;0.697000
1619.722046;0.706000
1620.427979;0.704000
1621.131958;0.666000
1621.797974;0.658000
1622.456055;0.639000
1623.094971;0.648000
1623.743042;0.652000
1624.395020;0.670000
1625.065063;0.702000
1625.766968;0.694000
1626.461060;0.702000
1627.162964;0.669000
1627.832031;0.664000
1628.495972;0.654000
1629.150024;0.664000
1629.813965;0.690000
1630.504028;0.701000
1631.204956;0.699000
1631.904053;0.712000
1632.615967;0.715000
1633.331055;0.727000
1634.057983;0.694000
1634.751953;0.668000
1635.420044;0.655000
1636.074951;0.655000
1636.729980;0.664000
1637.394043;0.666000
1638.060059;0.666000
1638.725952;0.656000
1639.381958;0.642000
1640.024048;0.641000
1640.665039;0.645000
1641.310059;0.666000
1641.975952;0.681000
1642.656982;0.713000
1643.369995;0.724000
1644.093994;0.694000
1644.787964;0.686000
1645.473999;0.658000
1646.131958;0.642000
1646.774048;0.651000
1647.425049;0.641000
1648.066040;0.619000
1648.685059;0.626000
1649.311035;0.619000
1649.930054;0.622000
1650.552002;0.626000
1651.177979;0.625000
1651.802979;0.622000
1652.425049;0.626000
1653.051025;0.623000
1653.674072;0.617000
1654.291016;0.607000
1654.898071;0.606000
1655.504028;0.597000
1656.100952;0.598000
1656.698975;0.593000
1657.291992;0.603000
1657.895020;0.638000
1658.532959;0.664000
1659.197021;0.661000
1659.858032;0.640000
1660.498047;0.632000
1661.130005;0.631000
1661.760986;0.631000
1662.391968;0.609000
1663.000977;0.607000
1663.608032;0.627000
1664.234985;0.659000
1664.894043;0.678000
1665.572021;0.658000
1666.229980;0.649000
1666.879028;0.660000
1667.539062;0.680000
1668.218994;0.657000
1668.875977;0.666000
1669.541992;0.652000
1670.193970;0.667000
1670.860962;0.652000
1671.513062;0.662000
1672.175049;0.671000
1672.846069;0.668000
1673.514038;0.643000
1674.156982;0.654000
1674.811035;0.664000
1675.474976;0.666000
1676.140991;0.652000
1676.792969;0.653000
1677.446045;0.650000
1678.096069;0.650000
1678.745972;0.658000
1679.404053;0.661000
1680.065063;0.668000
1680.733032;0.664000
1681.396973;0.651000
1682.047974;0.648000
1682.696045;0.652000
1683.348022;0.645000
1683.993042;0.641000
1684.634033;0.636000
1685.270020;0.650000
1685.920044;0.663000
1686.583008;0.656000
1687.239014;0.657000
1687.895996;0.658000
1688.553955;0.667000
1689.221069;0.669000
1689.890015;0.666000
1690.556030;0.681000
1691.237061;0.699000
1691.936035;0.695000
1692.630981;0.670000
1693.301025;0.648000
1693.948975;0.649000
1694.598022;0.662000
1695.260010;0.692000
1695.952026;0.665000
1696.617065;0.654000
1697.270996;0.660000
1697.931030;0.687000
1698.618042;0.694000
1699.312012;0.697000
1700.009033;0.702000
1700.711060;0.707000
1701.417969;0.683000
1702.100952;0.660000
1702.760986;0.631000
1703.391968;0.616000
1704.008057;0.606000
1704.614014;0.639000
1705.253052;0.716000
1705.968994;0.775000
1706.744019;0.787000
1707.531006;0.760000
1708.291016;0.738000
1709.029053;0.735000
1709.764038;0.718000
1710.482056;0.709000
1711.191040;0.712000
1711.902954;0.709000
1712.612061;0.712000
1713.323975;0.732000
1714.056030;0.747000
1714.802979;0.728000
1715.531006;0.711000
1716.242065;0.704000
1716.946045;0.721000
1717.666992;0.714000
1718.380981;0.718000
1719.098999;0.720000
1719.818970;0.719000
1720.537964;0.685000
1721.223022;0.678000
1721.901001;0.664000
1722.565063;0.674000
1723.239014;0.661000
1723.900024;0.665000
1724.565063;0.655000
1725.219971;0.634000
1725.854004;0.650000
1726.504028;0.697000
1727.201050;0.697000
1727.898071;0.692000
1728.589966;0.675000
1729.265015;0.665000
1729.930054;0.662000
1730.592041;0.663000
1731.255005;0.657000
1731.911987;0.652000
1732.563965;0.662000
1733.225952;0.661000
1733.886963;0.668000
1734.555054;0.651000
1735.206055;0.646000
1735.852051;0.643000
1736.494995;0.651000
1737.145996;0.663000
1737.808960;0.654000
1738.463013;0.641000
1739.104004;0.644000
1739.748047;0.639000
1740.386963;0.646000
1741.032959;0.640000
1741.672974;0.649000
1742.322021;0.674000
1742.995972;0.683000
1743.678955;0.673000
1744.352051;0.693000
1745.045044;0.675000
1745.719971;0.680000
1746.400024;0.663000
1747.062988;0.667000
1747.729980;0.657000
1748.386963;0.662000
1749.049072;0.642000
1749.691040;0.641000
1750.332031;0.655000
1750.987061;0.680000
1751.666992;0.664000
1752.331055;0.670000
1753.000977;0.674000
1753.675049;0.673000
1754.348022;0.662000
1755.010010;0.666000
1755.676025;0.667000
1756.343018;0.656000
1756.999023;0.665000
1757.664062;0.656000
1758.320068;0.643000
1758.963013;0.622000
1759.584961;0.621000
1760.206055;0.623000
1760.828979;0.634000
1761.463013;0.623000
1762.086060;0.615000
1762.701050;0.611000
1763.312012;0.617000
1763.928955;0.631000
1764.560059;0.640000
1765.199951;0.646000
1765.846069;0.635000
1766.480957;0.632000
1767.113037;0.617000
1767.729980;0.609000
1768.338989;0.607000
1768.946045;0.608000
1769.553955;0.617000
1770.171021;0.638000
1770.808960;0.659000
1771.468018;0.680000
1772.148071;0.695000
1772.843018;0.689000
1773.531982;0.690000
1774.222046;0.680000
1774.901978;0.665000
1775.567017;0.630000
1776.197021;0.617000
1776.813965;0.610000
1777.424072;0.623000
1778.046997;0.607000
1778.654053;0.602000
1779.255981;0.591000
1779.847046;0.578000
1780.425049;0.569000
1780.994019;0.573000
1781.567017;0.589000
1782.156006;0.603000
1782.759033;0.631000
1783.390015;0.672000
1784.062012;0.673000
1784.734985;0.663000
1785.398071;0.668000
1786.066040;0.656000
1786.722046;0.658000
1787.380005;0.648000
1788.027954;0.635000
1788.662964;0.643000
1789.306030;0.645000
1789.951050;0.652000
1790.603027;0.649000
1791.251953;0.652000
1791.904053;0.657000
1792.561035;0.665000
1793.225952;0.653000
1793.879028;0.663000
1794.541992;0.658000
1795.199951;0.662000
1795.862061;0.648000
1796.510010;0.645000
1797.155029;0.641000
1797.796021;0.636000
1798.432007;0.625000
1799.057007;0.614000
1799.671021;0.618000
1800.289062;0.670000
1800.958984;0.688000
1801.646973;0.652000
1802.299072;0.652000
1802.951050;0.624000
1803.574951;0.607000
1804.182007;0.592000
1804.774048;0.588000
1805.362061;0.587000
1805.948975;0.581000
1806.530029;0.589000
1807.119019;0.588000
1807.707031;0.607000
1808.313965;0.630000
1808.943970;0.668000
1809.612061;0.679000
1810.291016;0.690000
1810.980957;0.665000
1811.645996;0.639000
1812.285034;0.616000
1812.901001;0.592000
1813.493042;0.575000
1814.067993;0.563000
1814.630981;0.558000
1815.188965;0.583000
1815.771973;0.699000
1816.471069;0.744000
1817.214966;0.696000
1817.911011;0.680000
1818.591064;0.665000
1819.255981;0.664000
1819.920044;0.711000
1820.630981;0.756000
1821.386963;0.759000
1822.145996;0.768000
1822.914062;0.730000
1823.644043;0.710000
1824.354004;0.675000
1825.029053;0.652000
1825.681030;0.633000
1826.313965;0.615000
1826.928955;0.597000
1827.526001;0.596000
1828.122070;0.597000
1828.718994;0.616000
1829.334961;0.650000
1829.984985;0.730000
1830.714966;0.832000
1831.546997;0.880000
1832.427002;0.812000
1833.239014;0.787000
1834.026001;0.765000
1834.791016;0.712000
1835.503052;0.676000
1836.178955;0.677000
1836.855957;0.669000
1837.525024;0.666000
1838.191040;0.648000
1838.838989;0.666000
1839.505005;0.668000
1840.172974;0.694000
1840.867065;0.675000
1841.541992;0.700000
1842.242065;0.708000
1842.949951;0.685000
1843.635010;0.684000
1844.318970;0.696000
1845.015015;0.690000
1845.704956;0.666000
1846.370972;0.669000
1847.040039;0.689000
1847.729004;0.700000
1848.428955;0.676000
1849.104980;0.669000
1849.774048;0.691000
1850.464966;0.690000
1851.155029;0.663000
1851.817993;0.657000
1852.474976;0.625000
1853.099976;0.611000
1853.711060;0.601000
1854.312012;0.591000
1854.902954;0.591000
1855.494019;0.612000
1856.105957;0.646000
1856.751953;0.679000
1857.431030;0.684000
1858.114990;0.644000
1858.759033;0.631000
1859.390015;0.631000
1860.020996;0.643000
1860.664062;0.669000
1861.333008;0.674000
1862.006958;0.684000
1862.691040;0.673000
1863.364014;0.648000
1864.011963;0.649000
1864.661011;0.662000
1865.322998;0.694000
1866.016968;0.729000
1866.745972;0.749000
1867.494995;0.739000
1868.234009;0.760000
1868.994019;0.743000
1869.737061;0.742000
1870.479004;0.702000
1871.181030;0.731000
1871.911987;0.728000
1872.640015;0.695000
1873.334961;0.691000
1874.026001;0.671000
1874.697021;0.666000
1875.363037;0.661000
1876.024048;0.653000
1876.677002;0.705000
1877.381958;0.718000
1878.099976;0.709000
1878.808960;0.683000
1879.492065;0.640000
1880.131958;0.620000
1880.751953;0.609000
1881.360962;0.603000
1881.963989;0.608000
1882.572021;0.626000
1883.197998;0.648000
1883.846069;0.683000
1884.529053;0.708000
1885.237061;0.734000
1885.971069;0.700000
1886.671021;0.681000
1887.352051;0.671000
1888.023071;0.668000
1888.691040;0.657000
1889.348022;0.668000
1890.015991;0.655000
1890.671021;0.637000
1891.307983;0.637000
1891.945068;0.624000
1892.568970;0.625000
1893.193970;0.638000
1893.832031;0.639000
1894.471069;0.643000
1895.114014;0.635000
1895.749023;0.612000
1896.360962;0.611000
1896.972046;0.616000
1897.588013;0.625000
1898.213013;0.397000
