timestamp;value
2.311164;0.862784
3.289401;0.978928
4.462850;0.862784
5.044168;0.862784
5.919442;0.862784
6.604786;0.331840
6.797655;0.215696
7.091910;0.630496
8.259226;0.713456
8.361954;0.481168
8.845441;0.580720
10.212452;1.194624
11.089520;0.879376
11.867770;0.813008
13.040442;0.829600
13.524791;0.813008
14.206424;0.763232
15.512456;0.846192
16.451551;1.178032
17.426723;0.895968
18.207628;0.232288
18.401106;0.580720
18.693516;0.298656
20.154036;0.829600
21.229679;0.912560
21.521473;0.447984
21.908974;0.514352
22.397068;0.331840
23.472595;0.879376
23.665232;0.265472
23.762484;0.298656
24.056183;0.282064
24.369478;0.265472
24.736971;0.348432
24.931763;0.248880
25.809982;0.862784
26.882463;0.779824
27.078964;0.331840
27.275785;0.298656
27.954308;0.746640
29.027130;0.663680
29.421652;0.779824
30.197697;0.796416
30.979856;0.813008
31.757915;0.746640
32.636612;0.763232
32.735065;0.746640
33.220406;0.680272
34.195812;0.730048
34.976509;0.763232
35.463539;0.746640
36.241997;0.746640
37.317005;0.796416
37.907181;0.813008
38.777309;0.796416
39.364307;0.746640
40.241863;0.713456
41.116894;0.730048
41.606506;0.713456
42.389404;0.746640
43.263893;0.763232
43.846882;0.779824
44.532104;0.763232
45.412968;0.763232
46.089630;0.746640
46.872654;0.746640
47.848885;0.746640
48.234592;0.680272
48.918037;0.613904
49.699017;0.813008
50.479065;0.763232
51.359325;0.746640
51.939491;0.730048
52.819950;0.746640
53.408306;0.730048
54.475632;0.713456
54.866653;0.696864
55.452045;0.680272
56.425632;0.713456
56.923092;0.746640
57.890160;0.763232
58.475067;0.796416
59.547207;0.796416
60.129532;0.796416
61.209026;0.813008
61.691452;0.796416
62.667671;0.796416
63.348248;0.763232
64.518425;0.779824
64.811729;0.763232
65.591614;0.763232
66.272903;0.730048
67.053947;0.763232
67.930405;0.813008
68.711700;0.829600
69.587837;0.862784
70.371468;0.813008
71.246086;0.813008
72.025475;0.779824
72.910942;0.746640
73.585579;0.746640
74.564072;0.746640
75.341972;0.746640
75.828041;0.796416
76.905785;0.813008
77.387657;0.763232
78.267921;0.763232
78.851959;0.763232
79.631958;0.779824
80.607162;0.730048
81.388107;0.680272
81.971230;0.680272
82.459587;0.696864
83.534569;0.730048
83.920891;0.763232
84.700218;0.746640
85.580070;0.746640
86.651917;0.763232
87.138931;0.730048
87.722885;0.746640
88.701164;0.779824
89.240158;0.746640
90.266586;0.730048
90.746078;0.763232
91.429733;0.746640
92.406441;0.746640
93.023468;0.779824
93.767738;0.779824
94.548180;0.746640
95.524513;0.763232
96.111549;0.779824
96.790909;0.746640
97.800896;0.730048
98.254951;0.713456
99.326393;0.713456
99.715538;0.713456
100.595840;0.713456
101.080345;0.680272
101.763885;0.680272
102.642052;0.713456
103.127563;0.647088
104.298599;0.680272
104.786507;0.730048
105.273331;0.746640
106.151962;0.713456
106.638168;0.680272
107.322327;0.696864
108.200340;0.696864
109.077919;0.713456
109.467651;0.730048
110.637573;0.730048
111.126709;0.763232
111.805679;0.779824
112.490402;0.746640
113.268723;0.696864
114.438019;0.779824
114.832161;0.779824
115.609863;0.779824
116.392578;0.763232
117.168152;0.813008
118.049248;0.763232
118.730034;0.763232
119.800560;0.763232
120.191734;0.730048
120.873245;0.680272
121.849091;0.713456
122.240562;0.713456
123.310539;0.730048
123.702644;0.713456
124.678329;0.713456
125.163483;0.696864
125.845833;0.680272
126.628128;0.696864
127.211578;0.680272
128.189819;0.696864
128.576569;0.713456
129.356049;0.730048
130.335251;0.730048
130.820374;0.730048
131.500793;0.696864
132.185822;0.696864
133.160309;0.713456
133.553192;0.680272
134.232803;0.680272
135.207108;0.663680
135.693359;0.713456
136.769348;0.713456
137.645630;0.730048
138.134506;0.713456
138.523376;0.730048
139.496643;0.696864
139.983398;0.730048
140.668488;0.730048
141.445969;0.730048
142.519791;0.713456
142.908463;0.730048
143.986099;0.730048
144.470947;0.696864
145.059387;0.696864
145.738098;0.713456
146.418442;0.696864
147.297440;0.696864
147.882996;0.730048
148.563522;0.713456
149.638077;0.713456
150.125305;0.730048
150.709106;0.713456
151.393082;0.696864
152.076263;0.713456
153.150436;0.696864
153.538132;0.713456
154.218689;0.696864
154.903625;0.713456
156.073135;0.730048
156.466019;0.730048
157.439423;0.713456
157.828064;0.730048
158.606262;0.730048
159.290085;0.713456
159.971527;0.713456
161.045822;0.713456
161.435867;0.696864
162.118301;0.696864
162.998215;0.696864
163.483826;0.713456
164.458588;0.730048
164.943787;0.713456
165.765045;0.746640
166.604446;0.763232
167.186752;0.746640
168.165558;0.730048
169.041580;0.746640
169.432785;0.730048
170.114044;0.713456
170.800201;0.680272
171.768997;0.696864
172.454483;0.696864
172.941162;0.696864
173.622055;0.680272
174.303955;0.663680
175.086075;0.630496
175.474091;0.530944
176.156555;0.763232
177.136017;0.713456
178.012314;0.713456
178.301590;0.680272
178.986557;0.680272
179.666626;0.680272
180.641571;0.680272
181.033646;0.696864
182.007629;0.696864
182.494156;0.713456
183.470810;0.730048
183.958008;0.730048
184.639206;0.713456
185.716629;0.746640
186.101868;0.746640
186.881668;0.746640
187.661667;0.763232
188.738007;0.763232
189.125076;0.779824
190.001709;0.763232
190.683670;0.763232
191.466171;0.746640
192.147873;0.746640
192.836075;0.680272
194.002274;0.730048
194.296082;0.713456
195.071854;0.746640
195.853271;0.746640
196.536179;0.763232
197.416046;0.779824
198.095230;0.779824
198.877457;0.779824
199.752350;0.746640
200.732193;0.730048
201.117798;0.713456
202.192810;0.696864
202.679703;0.696864
203.166504;0.696864
204.335190;0.730048
204.920837;0.696864
205.407166;0.763232
206.384750;0.763232
206.967850;0.763232
208.042587;0.763232
208.429855;0.746640
209.209641;0.746640
209.894577;0.746640
211.065094;0.746640
211.452515;0.779824
212.233994;0.763232
213.211182;0.746640
213.696793;0.763232
214.769867;0.779824
215.259094;0.746640
216.035400;0.746640
216.914581;0.746640
217.499283;0.713456
218.473938;0.680272
218.862869;0.680272
219.837234;0.696864
220.325958;0.763232
220.911972;0.663680
221.888565;0.696864
222.372757;0.713456
223.155457;0.696864
223.739365;0.730048
224.814728;0.730048
225.200760;0.713456
225.980560;0.713456
226.857330;0.730048
227.442474;0.730048
228.126953;0.746640
229.197495;0.746640
229.684982;0.746640
230.564468;0.730048
231.149323;0.713456
231.832932;0.696864
232.612259;0.630496
233.393478;0.663680
234.072998;0.663680
234.462463;0.696864
235.537704;0.713456
235.925446;0.763232
236.705109;0.763232
237.778580;0.779824
238.170303;0.730048
239.145355;0.763232
239.727997;0.763232
240.801590;0.763232
241.192398;0.746640
242.070938;0.713456
242.849716;0.730048
243.432724;0.730048
244.118195;0.730048
244.897186;0.730048
245.577759;0.696864
246.458344;0.730048
247.432602;0.730048
247.725342;0.713456
248.502747;0.713456
249.185379;0.730048
249.869644;0.696864
250.552353;0.680272
251.234863;0.696864
251.918289;0.696864
252.893463;0.696864
253.377823;0.696864
254.062424;0.730048
255.037521;0.713456
255.621185;0.713456
256.207672;0.730048
257.085724;0.746640
258.057983;0.730048
258.448334;0.713456
259.227966;0.746640
259.912628;0.696864
260.498322;0.647088
261.473083;0.730048
261.958069;0.696864
262.643799;0.696864
263.522247;0.730048
264.103973;0.746640
265.178192;0.730048
265.566956;0.730048
266.345703;0.763232
267.031128;0.713456
267.808167;0.713456
268.783569;0.696864
269.175629;0.730048
270.148560;0.713456
270.636322;0.730048
271.416290;0.746640
272.293182;0.746640
272.880219;0.746640
273.658264;0.730048
274.342773;0.763232
275.222565;0.746640
275.902802;0.730048
276.583832;0.730048
277.560364;0.746640
278.047852;0.713456
278.826447;0.730048
279.508392;0.713456
280.389313;0.730048
280.971313;0.730048
282.043945;0.730048
282.823822;0.746640
283.118378;0.696864
284.093262;0.730048
284.581024;0.713456
285.749115;0.730048
286.143463;0.713456
286.726318;0.746640
287.896362;0.813008
288.287506;0.746640
289.261932;0.696864
289.844177;0.713456
290.428589;0.696864
291.112976;0.696864
291.795837;0.696864
292.966736;0.713456
293.257629;0.713456
294.331482;0.696864
294.915680;0.730048
295.401276;0.713456
296.476166;0.713456
296.965729;0.746640
297.841125;0.730048
298.425934;0.746640
299.496307;0.713456
299.888824;0.746640
300.568542;0.730048
301.643829;0.730048
301.934570;0.696864
303.006866;0.746640
303.398224;0.730048
304.081360;0.680272
305.152740;0.680272
305.445679;0.663680
306.127075;0.663680
307.006409;0.630496
307.395996;0.647088
307.978821;0.597312
308.860443;0.630496
309.347534;0.630496
310.225922;0.663680
310.611450;0.663680
311.587097;0.680272
311.978485;0.680272
312.659637;0.696864
313.439484;0.696864
314.024109;0.696864
314.708496;0.680272
315.391083;0.696864
316.171051;0.696864
317.050751;0.696864
317.536194;0.713456
318.314117;0.713456
319.196075;0.696864
319.778015;0.713456
320.558929;0.713456
321.046448;0.713456
322.117371;0.696864
322.506714;0.713456
323.190979;0.713456
324.166290;0.713456
324.665558;0.713456
325.908936;0.730048
326.117279;0.730048
326.797791;0.730048
327.871674;0.746640
328.358490;0.746640
329.039948;0.730048
329.821564;0.746640
330.808502;0.730048
331.284698;0.763232
332.161865;0.763232
333.040955;0.763232
333.527039;0.730048
334.500336;0.730048
334.987732;0.746640
335.768311;0.746640
336.645081;0.879376
337.428528;0.763232
338.498962;0.696864
338.887329;0.796416
339.961700;0.713456
340.352448;0.763232
341.523743;0.763232
341.910858;0.730048
342.788239;0.879376
343.567749;0.763232
344.251709;0.730048
345.322174;0.680272
345.720337;0.713456
346.201996;0.580720
347.301605;0.613904
347.466980;0.647088
348.638885;0.862784
349.125519;0.796416
350.102509;0.564128
350.490479;0.713456
351.467346;1.045296
352.457367;0.912560
353.318695;0.730048
353.903687;0.763232
354.683594;0.796416
355.562073;0.763232
356.243958;0.746640
357.414978;0.945744
357.707153;0.547536
358.684631;0.779824
359.557892;0.680272
359.949341;0.680272
361.019348;0.713456
361.316376;0.779824
362.385040;0.746640
362.971344;0.829600
364.044830;0.779824
364.530487;0.763232
365.604675;0.746640
365.993713;0.696864
366.773590;0.779824
367.654358;0.680272
367.750366;0.066368
368.139404;0.630496
368.820526;0.730048
369.601440;0.580720
370.087585;0.630496
371.065552;0.580720
371.258789;0.398208
371.848877;0.846192
372.623779;0.713456
373.306824;0.713456
373.987915;0.680272
374.964874;0.796416
375.849182;0.730048
376.424774;0.895968
377.111969;0.746640
378.280426;0.929152
378.667023;0.580720
379.155945;0.481168
379.841675;0.680272
380.520447;0.730048
381.595093;0.746640
381.983398;0.680272
383.155609;0.779824
383.452698;0.597312
384.131439;0.730048
384.912689;0.796416
385.690399;0.779824
386.767853;0.730048
386.955841;0.564128
387.542175;0.597312
388.223145;0.647088
388.906860;0.713456
390.120911;0.730048
390.215485;0.514352
390.952881;0.763232
391.928864;0.647088
392.222137;0.630496
392.903290;0.696864
393.977875;0.829600
394.857697;0.829600
395.343048;0.779824
395.731018;0.365024
396.413055;0.680272
397.095886;0.696864
397.582947;0.497760
398.070557;0.514352
398.952332;0.613904
399.437622;0.713456
400.216156;0.663680
400.508606;0.365024
401.093323;0.647088
401.873596;0.779824
402.753357;0.730048
403.238037;0.663680
404.018036;0.696864
404.700623;0.696864
405.485321;0.597312
405.871063;0.597312
406.750183;0.895968
407.822052;0.713456
408.017700;0.298656
408.506317;0.763232
409.675964;0.730048
410.260773;0.995520
411.330688;0.813008
411.917938;0.796416
412.796814;0.696864
413.282379;0.663680
413.963287;0.713456
414.942291;0.763232
415.425842;0.663680
416.210327;0.597312
417.084106;0.680272
417.379883;0.680272
417.867065;0.547536
418.450134;0.564128
418.936005;0.464576
419.813477;0.530944
420.013275;0.547536
420.595978;0.630496
420.694824;0.099552
421.278290;0.564128
421.863434;0.597312
423.033722;0.746640
423.225586;0.265472
423.323273;0.149328
423.442780;0.414800
424.298645;0.796416
425.180298;0.647088
425.566284;0.680272
426.541626;0.564128
426.833496;0.530944
427.226257;0.580720
427.810364;0.530944
428.688171;0.547536
429.273743;0.680272
429.663177;0.647088
430.636810;0.945744
431.708527;0.630496
432.199249;0.796416
432.781799;0.746640
436.073517;0.680272
436.077454;0.713456
436.107971;0.796416
436.112640;0.680272
436.397644;0.713456
437.268372;0.630496
437.558777;0.530944
438.551575;0.630496
438.930206;0.696864
439.412720;0.580720
440.220154;0.630496
440.873962;0.763232
441.458893;0.580720
442.339294;0.564128
442.946960;0.680272
443.410614;0.763232
443.993835;0.597312
444.884033;0.813008
445.751099;0.514352
446.238007;0.613904
446.724426;0.713456
447.603180;0.580720
447.993683;0.713456
448.578644;0.630496
449.260956;0.680272
449.942719;0.663680
450.768463;0.630496
451.306366;0.663680
451.893646;0.647088
452.478424;0.597312
453.549500;0.696864
453.941193;0.730048
454.919403;0.696864
455.210388;0.597312
455.524506;0.265472
456.281433;0.580720
456.766266;0.663680
457.381378;0.647088
458.327515;0.663680
458.718872;0.680272
459.595612;0.630496
459.985840;0.630496
460.960663;0.680272
461.351379;0.663680
461.940033;0.630496
462.715302;0.730048
463.300049;0.580720
463.593689;0.331840
464.176666;0.580720
465.054596;0.862784
465.738800;0.663680
466.811584;0.730048
467.297913;0.630496
467.624847;0.514352
468.467468;0.846192
469.149261;0.696864
470.125275;0.713456
470.514221;0.613904
471.099335;0.647088
471.686401;0.597312
472.173859;0.497760
473.244476;0.696864
473.536774;0.613904
474.121887;0.597312
474.706879;0.547536
475.001465;0.381616
475.392212;0.414800
475.681915;0.265472
476.073944;0.414800
477.051270;0.663680
477.342224;0.580720
478.415009;0.696864
478.706543;0.663680
479.291534;0.547536
480.069397;0.779824
481.240845;0.912560
481.630005;0.630496
481.727020;0.165920
481.923981;0.149328
482.214813;0.265472
482.507172;0.298656
482.799438;0.282064
482.897034;0.149328
483.872528;0.680272
484.359802;0.763232
485.042206;0.647088
486.117676;0.779824
486.312531;0.580720
487.284485;0.630496
487.772736;0.746640
488.454559;0.680272
488.554565;0.182512
489.527863;0.116144
490.307129;0.746640
491.185028;0.862784
492.355255;0.862784
492.844177;0.862784
494.016266;1.061888
494.988556;0.846192
495.671661;0.547536
495.867432;0.381616
496.352570;0.613904
496.839752;0.464576
497.721283;0.680272
498.600739;0.846192
499.277252;0.929152
500.155426;0.597312
500.266632;0.431392
501.230194;0.647088
501.424133;0.331840
502.107727;0.862784
502.211853;0.099552
502.984406;0.763232
503.665222;0.696864
504.152557;0.447984
504.444855;0.298656
504.837036;0.381616
505.520355;0.730048
506.007141;0.464576
506.297943;0.282064
506.495178;0.232288
506.979889;0.414800
507.566925;0.613904
507.955109;0.414800
508.929993;0.547536
509.031921;0.497760
509.714203;0.398208
510.199493;0.746640
510.977478;0.779824
511.954681;0.763232
512.537537;0.796416
513.122559;0.597312
513.903259;0.813008
514.684021;0.547536
514.784485;0.365024
515.267822;0.414800
515.854675;0.481168
516.242554;0.481168
516.535217;0.365024
517.120178;0.514352
517.510010;0.381616
518.390015;0.414800
518.972534;0.530944
519.658203;0.348432
519.950134;0.547536
520.634277;0.779824
521.119812;0.514352
521.507690;0.348432
521.995667;0.447984
522.679565;0.464576
522.875244;0.497760
523.556946;0.431392
523.752258;0.447984
524.532227;0.779824
525.605347;0.613904
525.803162;0.580720
526.579102;0.746640
527.457336;0.564128
527.847290;0.514352
528.041931;0.348432
528.432922;0.514352
528.917786;0.414800
529.406006;0.547536
529.894836;0.464576
530.282776;0.414800
531.162964;0.464576
531.454590;0.514352
531.845398;0.597312
532.623535;0.730048
533.305420;0.730048
534.187622;0.630496
534.475464;0.497760
534.867493;0.431392
535.355408;0.497760
536.038025;0.464576
536.232422;0.414800
537.012451;0.497760
537.112549;0.365024
537.595825;0.431392
538.085144;0.547536
539.060608;0.746640
539.744507;0.580720
540.130676;0.713456
541.108154;0.564128
541.303101;0.431392
541.495605;0.381616
542.472473;0.547536
543.057434;0.746640
543.642761;0.796416
544.520996;0.530944
544.810669;0.431392
545.103149;0.481168
545.590637;0.481168
546.180908;0.414800
546.469971;0.348432
546.761230;0.414800
547.544861;0.447984
547.834900;0.447984
548.518921;0.929152
549.198120;0.680272
550.176208;0.730048
551.050537;0.647088
551.345886;0.613904
552.025818;0.763232
552.515381;0.547536
553.197510;0.348432
553.586182;0.398208
553.783813;0.497760
554.268311;0.431392
554.951843;0.348432
555.051147;0.464576
555.440063;0.447984
555.833374;0.365024
556.316589;0.464576
557.193787;0.530944
557.295776;0.414800
558.367188;0.481168
558.656128;0.497760
558.951050;0.348432
559.435852;0.431392
560.023010;0.630496
560.510925;0.464576
561.483398;0.613904
561.873840;0.730048
562.557983;0.663680
563.532776;0.663680
563.728577;0.580720
564.410522;0.680272
565.190491;0.763232
565.678772;0.497760
566.163452;0.414800
566.945374;0.564128
567.044617;0.365024
567.237854;0.149328
567.431030;0.215696
568.017334;0.464576
568.213074;0.315248
568.701111;0.514352
569.091309;0.414800
569.481445;0.365024
570.453613;0.597312
570.649353;0.580720
570.843994;0.132736
571.333130;0.530944
572.113159;0.613904
572.308411;0.215696
572.309692;0.033184
572.503113;0.282064
573.183472;0.713456
573.671997;0.447984
574.160645;0.481168
574.550659;0.431392
575.429138;0.481168
575.817078;0.813008
576.403015;0.547536
577.184998;0.481168
577.477539;0.597312
578.061401;0.613904
578.741394;0.630496
579.328247;0.564128
580.107056;0.696864
580.693298;0.746640
581.373901;0.663680
582.251587;0.846192
583.031860;0.746640
583.911377;0.779824
584.591797;0.796416
585.274048;0.696864
586.346375;0.813008
586.833801;0.730048
587.908386;0.680272
588.395691;0.630496
588.686523;0.530944
589.076538;0.464576
589.760803;0.647088
590.443604;0.647088
591.416382;0.730048
591.807190;0.580720
592.783630;0.713456
593.076172;0.647088
593.853943;0.796416
594.736267;0.663680
595.221069;0.680272
595.903381;0.713456
596.681519;0.713456
597.266541;0.580720
598.339661;0.647088
598.538147;0.564128
599.021545;0.530944
599.411621;0.464576
600.291382;0.414800
600.583984;0.597312
601.656250;0.813008
601.851746;0.365024
602.239075;0.564128
603.119202;0.597312
603.411316;0.613904
604.092041;0.630496
605.067322;0.630496
605.360413;0.514352
606.041321;0.813008
606.626892;0.580720
606.857544;0.232288
607.309204;0.464576
608.092407;0.514352
608.578003;0.730048
609.066406;0.564128
609.748535;0.663680
610.332703;0.530944
610.728943;0.447984
611.601624;0.663680
611.991394;0.630496
612.771423;0.779824
613.549500;0.696864
614.134399;0.580720
614.816956;0.680272
615.209045;0.464576
615.800781;0.530944
616.768982;0.647088
617.159607;0.547536
617.646240;0.696864
618.132019;0.464576
618.522766;0.365024
619.010132;0.481168
619.399414;0.398208
620.084778;0.331840
620.961670;0.696864
621.546692;0.597312
622.129456;0.564128
622.716553;0.547536
623.202454;0.481168
623.884583;0.696864
624.374084;0.547536
625.347473;0.647088
626.032593;0.613904
626.326843;0.597312
627.395142;0.713456
627.784973;0.779824
628.272644;0.464576
628.665283;0.414800
629.165588;0.547536
630.418945;0.813008
630.613159;0.398208
630.907166;0.514352
631.489929;0.580720
632.661133;0.862784
632.859436;0.663680
633.245544;0.398208
634.123413;0.779824
634.610596;0.630496
635.292175;0.630496
635.877502;0.613904
636.561584;0.680272
637.437012;0.829600
638.023254;0.647088
638.609009;0.580720
639.487915;0.730048
639.982117;0.597312
640.557434;0.597312
641.241211;0.381616
641.535706;0.447984
641.922668;0.514352
642.508423;0.597312
643.190613;0.730048
644.264160;0.680272
644.652527;0.713456
645.250549;0.630496
645.728149;0.431392
646.700500;0.647088
647.089478;0.763232
647.772400;0.647088
648.162598;0.398208
648.846619;0.663680
649.726868;0.564128
650.113953;0.696864
650.702271;0.613904
651.284851;0.647088
652.163147;0.647088
652.550598;0.530944
653.333740;0.630496
653.819641;0.696864
654.892334;0.647088
655.187805;0.713456
656.163208;0.995520
656.840210;0.613904
657.327698;0.514352
657.425659;0.116144
657.622498;0.199104
657.986877;0.282064
658.011230;0.132736
658.700928;0.398208
659.083008;0.647088
660.058960;0.530944
660.066406;0.099552
660.354309;0.647088
661.328186;0.663680
661.617798;0.547536
662.105408;0.530944
662.790955;0.613904
663.572388;0.796416
663.766296;0.248880
664.447571;0.696864
665.132019;0.696864
665.728638;0.530944
666.688232;0.530944
666.884583;0.514352
667.565430;0.779824
668.451172;0.730048
668.835754;0.613904
669.224365;0.331840
669.711853;0.530944
670.104797;0.398208
670.882141;0.414800
671.173462;0.514352
671.664185;0.597312
672.635559;0.597312
673.027588;0.779824
673.807739;0.763232
674.295227;0.530944
674.879211;0.547536
675.855591;0.978928
676.731140;0.680272
677.023560;0.232288
677.807068;0.730048
678.302063;0.464576
678.975525;0.365024
679.460999;0.464576
679.657104;0.481168
680.729858;0.530944
681.413208;0.829600
681.898865;0.481168
682.288208;0.414800
682.874146;0.514352
683.167786;0.348432
683.946716;0.730048
684.532227;0.564128
684.923950;0.431392
685.313721;0.447984
685.703552;0.365024
686.190125;0.431392
686.384277;0.215696
686.480652;0.132736
686.968933;0.514352
687.455811;0.481168
688.335388;0.464576
688.724365;0.431392
688.826233;0.447984
689.313538;0.497760
689.806702;0.447984
690.284668;0.464576
691.065308;0.497760
691.756226;0.514352
692.237549;0.431392
693.065613;0.447984
693.211365;0.530944
693.991028;0.481168
694.381592;0.514352
694.670715;0.481168
695.159180;0.514352
695.647949;0.497760
696.525757;0.481168
696.818420;0.481168
697.110229;0.497760
697.597961;0.497760
698.085571;0.497760
698.670532;0.514352
699.548096;0.497760
699.840271;0.497760
700.132751;0.497760
700.618286;0.464576
701.106445;0.530944
701.890625;0.530944
702.180481;0.514352
703.057739;0.530944
703.448059;0.514352
703.739746;0.530944
704.520447;0.530944
704.810974;0.497760
705.300293;0.530944
705.790344;0.514352
706.370972;0.514352
706.858765;0.530944
707.833313;0.547536
708.225952;0.514352
708.547913;0.530944
709.005676;0.530944
709.493896;0.514352
710.076538;0.530944
710.565552;0.547536
711.150818;0.547536
711.737183;0.564128
712.223206;0.530944
712.805908;0.547536
713.686584;0.514352
713.977844;0.530944
714.368286;0.547536
715.150330;0.547536
715.830994;0.530944
716.125671;0.564128
716.608887;0.580720
717.195740;0.580720
717.778687;0.580720
718.561035;0.580720
718.950806;0.597312
719.533813;0.564128
720.413513;0.580720
720.703674;0.564128
721.193298;0.564128
721.973694;0.547536
722.363342;0.564128
722.946289;0.564128
723.824219;0.580720
724.021484;0.564128
724.701416;0.597312
725.286377;0.597312
725.872131;0.597312
726.456970;0.580720
727.143066;0.597312
727.626831;0.564128
728.211914;0.580720
728.898254;0.580720
729.382935;0.580720
729.868958;0.547536
730.454651;0.547536
731.039429;0.564128
731.918335;0.564128
732.210938;0.580720
732.698669;0.580720
733.281433;0.547536
733.868958;0.564128
734.938965;0.597312
735.139099;0.580720
735.621643;0.580720
736.207092;0.597312
736.792053;0.580720
737.573364;0.580720
737.961487;0.564128
738.546936;0.597312
739.518677;0.580720
739.716919;0.580720
740.491943;0.580720
741.173096;0.597312
741.460388;0.580720
742.044128;0.613904
742.924377;0.564128
743.315979;0.597312
743.801147;0.597312
744.386597;0.613904
744.971558;0.597312
745.847595;0.613904
746.236633;0.613904
746.823547;0.613904
747.504089;0.613904
748.286011;0.613904
748.970398;0.597312
749.259216;0.613904
749.846130;0.580720
750.431274;0.580720
751.306580;0.597312
751.697021;0.597312
752.281921;0.613904
753.258606;0.597312
753.649048;0.613904
754.036682;0.597312
754.719788;0.597312
755.304810;0.597312
756.281128;0.597312
756.669189;0.597312
757.059570;0.613904
758.036255;0.597312
758.330750;0.597312
758.913940;0.613904
759.696228;0.597312
760.082642;0.613904
760.764343;0.613904
761.545471;0.613904
762.325256;0.613904
762.621643;0.630496
763.593323;0.613904
763.985962;0.613904
764.371948;0.597312
765.348755;0.597312
765.739624;0.580720
766.128906;0.564128
766.714111;0.597312
767.394470;0.613904
768.274963;0.597312
768.664551;0.613904
769.151611;0.597312
770.031067;0.597312
770.321594;0.597312
771.001953;0.597312
771.586975;0.597312
772.174500;0.597312
772.757019;0.564128
773.634583;0.580720
773.927063;0.580720
774.512146;0.597312
775.096985;0.613904
776.072083;0.647088
776.369080;0.630496
777.047424;0.647088
777.632996;0.630496
778.704712;0.580720
778.999146;0.580720
779.387390;0.580720
780.364258;0.597312
780.754822;0.597312
781.142151;0.580720
782.117737;0.630496
782.410583;0.647088
783.483704;0.680272
783.971741;0.663680
784.457275;0.647088
785.044373;0.580720
785.922424;0.613904
786.311829;0.630496
787.190979;0.613904
787.479797;0.613904
788.066772;0.613904
788.747925;0.597312
789.625427;0.613904
789.919312;0.597312
790.795349;0.613904
791.185364;0.613904
791.770386;0.613904
792.555420;0.613904
793.037354;0.613904
793.624512;0.613904
794.505066;0.630496
794.890015;0.613904
795.866821;0.630496
796.157776;0.647088
796.745178;0.647088
797.424927;0.647088
798.107422;0.647088
798.692871;0.647088
799.668152;0.647088
799.960754;0.630496
800.939453;0.680272
801.325378;0.613904
801.912109;0.613904
802.592529;0.647088
803.567566;0.630496
803.860046;0.630496
804.447205;0.630496
805.127441;0.663680
806.105835;0.630496
806.395203;0.663680
807.079285;0.630496
807.664734;0.663680
808.446899;0.647088
809.417603;0.647088
809.714111;0.630496
810.295776;0.663680
810.977661;0.680272
811.857056;0.680272
812.342651;0.680272
812.930542;0.630496
813.610291;0.663680
814.685486;0.630496
814.879211;0.580720
815.463135;0.597312
816.438171;0.580720
816.925354;0.564128
817.218140;0.597312
818.098145;0.597312
818.582764;0.630496
819.072327;0.647088
819.657837;0.647088
820.437622;0.597312
820.922974;0.597312
821.507812;0.564128
822.387939;0.580720
822.583069;0.580720
823.459351;0.580720
823.849243;0.597312
824.433350;0.630496
825.411560;0.663680
825.798401;0.713456
826.482483;0.713456
827.263123;0.730048
827.943054;0.713456
829.015564;0.713456
829.408325;0.746640
830.575989;0.713456
830.968750;0.696864
831.940674;0.663680
832.330566;0.647088
832.819946;0.647088
833.406921;0.647088
834.280518;0.630496
834.672607;0.630496
835.354980;0.630496
836.230591;0.613904
837.014893;0.680272
837.303772;0.647088
837.890198;0.647088
838.571411;0.663680
839.258118;0.630496
839.936035;0.680272
840.913818;0.680272
841.206604;0.630496
841.791138;0.597312
842.669067;0.613904
843.057922;0.613904
843.642822;0.630496
844.520752;0.630496
844.910217;0.630496
845.690918;0.597312
846.176697;0.630496
846.761597;0.630496
847.739563;0.630496
848.029602;0.630496
848.711365;0.630496
849.295837;0.613904
850.078491;0.613904
850.564148;0.630496
851.346252;0.613904
851.736206;0.613904
852.613586;0.613904
853.002991;0.630496
853.683838;0.613904
854.268311;0.597312
855.050537;0.597312
855.440491;0.597312
856.415588;0.597312
856.611816;0.613904
857.195740;0.597312
857.876648;0.613904
858.657898;0.613904
859.144104;0.630496
859.925049;0.597312
860.316223;0.613904
860.899963;0.597312
861.680542;0.597312
862.071411;0.597312
862.656067;0.597312
863.436035;0.597312
863.922058;0.597312
864.899292;0.597312
865.288757;0.613904
865.677002;0.613904
866.654968;0.613904
866.949341;0.630496
867.626221;0.613904
868.211182;0.613904
868.798279;0.613904
869.383545;0.597312
870.258728;0.597312
870.649170;0.613904
871.234436;0.597312
872.211060;0.630496
872.502808;0.613904
873.479065;0.613904
873.773132;0.597312
874.356323;0.630496
875.235046;0.613904
875.523804;0.597312
876.111572;0.613904
876.791687;0.630496
877.768616;0.613904
878.157837;0.613904
879.035950;0.630496
879.331055;0.630496
879.913513;0.663680
880.795349;0.647088
881.179260;0.647088
881.861450;0.630496
882.447327;0.630496
883.128967;0.630496
884.006470;0.613904
884.301208;0.613904
884.982117;0.613904
885.764160;0.630496
886.249146;0.647088
887.226318;0.663680
887.518127;0.647088
888.201538;0.663680
889.079163;0.680272
889.564148;0.647088
890.149902;0.663680
890.833923;0.663680
891.710999;0.630496
892.395508;0.613904
892.784729;0.630496
893.368713;0.630496
894.049255;0.647088
895.024292;0.663680
895.316833;0.613904
895.905945;0.630496
896.585144;0.663680
897.563110;0.630496
897.856689;0.663680
898.534241;0.630496
899.119690;0.630496
900.193909;0.647088
900.487976;0.630496
901.364746;0.630496
901.658936;0.647088
902.339600;0.663680
903.217773;0.663680
903.701843;0.663680
904.287231;0.630496
905.265869;0.647088
905.555054;0.613904
906.241821;0.613904
906.821838;0.580720
907.310181;0.564128
908.286682;0.547536
908.483765;0.547536
908.967102;0.564128
909.554077;0.547536
910.432007;0.597312
910.723083;0.597312
911.700867;0.597312
911.989563;0.630496
912.576599;0.630496
913.260193;0.696864
914.233826;0.696864
915.112732;0.696864
915.600769;0.680272
916.084656;0.680272
917.060852;0.663680
917.354187;0.647088
918.035034;0.647088
918.621582;0.647088
919.302917;0.630496
920.280090;0.647088
920.667542;0.663680
921.254150;0.647088
921.934631;0.647088
923.007141;0.647088
923.207092;0.663680
924.177917;0.647088
924.470520;0.630496
925.447754;0.630496
925.839661;0.647088
926.421631;0.647088
927.007324;0.630496
927.884399;0.647088
928.369751;0.663680
929.346375;0.663680
929.638184;0.647088
930.616577;0.680272
931.395020;0.663680
931.684998;0.663680
932.367920;0.647088
932.952637;0.630496
933.635620;0.647088
934.514832;0.647088
934.904663;0.613904
935.585632;0.680272
936.368347;0.663680
936.852478;0.663680
937.926819;0.663680
938.222412;0.663680
939.289978;0.647088
939.586670;0.680272
940.170349;0.663680
940.852356;0.663680
941.532532;0.663680
942.315552;0.647088
943.094360;0.663680
943.484802;0.647088
944.165344;0.680272
945.143372;0.663680
945.530334;0.663680
946.117065;0.663680
946.996765;0.663680
947.870605;0.680272
948.167297;0.663680
948.750366;0.630496
949.430298;0.663680
950.406677;0.647088
950.795471;0.647088
951.675110;0.630496
951.969788;0.613904
952.647827;0.647088
953.623840;0.663680
953.918457;0.647088
954.599976;0.663680
955.478271;0.647088
955.867554;0.630496
956.748108;0.647088
957.230469;0.647088
957.815369;0.630496
958.695129;0.647088
959.084961;0.630496
959.767456;0.647088
960.353149;0.630496
961.035217;0.630496
962.009583;0.630496
962.302368;0.613904
962.885437;0.613904
963.471375;0.630496
964.449890;0.647088
964.836060;0.630496
965.811829;0.647088
966.204285;0.647088
966.690735;0.647088
967.567871;0.647088
968.053589;0.630496
968.640503;0.630496
969.420044;0.613904
969.905884;0.613904
970.978210;0.630496
971.177429;0.613904
971.760132;0.613904
972.638794;0.597312
972.932678;0.613904
973.515381;0.597312
974.100220;0.580720
974.683960;0.613904
975.365845;0.613904
976.149109;0.630496
976.634521;0.613904
977.218628;0.613904
978.195557;0.613904
978.489075;0.597312
978.973328;0.597312
979.560303;0.580720
980.145325;0.580720
980.728333;0.580720
981.703552;0.597312
981.995728;0.613904
982.582825;0.597312
983.165894;0.613904
983.753113;0.597312
984.727600;0.613904
985.020325;0.613904
985.606201;0.630496
986.285889;0.630496
986.873047;0.647088
987.553955;0.613904
988.236450;0.663680
988.821716;0.630496
989.798950;0.613904
990.189392;0.630496
990.675598;0.630496
991.555664;0.613904
992.333313;0.613904
992.722778;0.613904
993.111450;0.613904
994.184082;0.597312
994.476013;0.647088
995.356506;0.597312
995.748474;0.597312
996.234802;0.613904
996.816162;0.613904
997.599792;0.613904
998.473633;0.630496
998.671875;0.613904
999.255737;0.613904
999.936707;0.613904
1000.718445;0.613904
1001.108032;0.597312
1001.691162;0.597312
1002.573181;0.597312
1002.958984;0.597312
1003.545593;0.597312
1004.421875;0.597312
1004.713989;0.613904
1005.301575;0.613904
1006.178467;0.630496
1006.568787;0.613904
1007.446533;0.630496
1007.835876;0.647088
1008.516968;0.647088
1009.491821;0.630496
1009.883972;0.580720
1010.371155;0.597312
1011.249390;0.630496
1011.543457;0.597312
1012.126587;0.597312
1013.098877;0.613904
1013.392090;0.580720
1013.976379;0.597312
1014.758423;0.613904
1015.148621;0.597312
1015.732178;0.580720
1016.515076;0.597312
1016.903992;0.613904
1017.584045;0.613904
1018.560730;0.630496
1018.852844;0.630496
1019.828857;0.630496
1020.118958;0.630496
1020.806152;0.647088
1021.585144;0.630496
1022.363098;0.613904
1022.654480;0.630496
1023.631653;0.613904
1023.827576;0.630496
1024.508789;0.613904
1025.092896;0.613904
1025.677368;0.630496
1026.656006;0.630496
1026.944214;0.630496
1027.626587;0.630496
1028.505615;0.630496
1028.894165;0.630496
1029.479980;0.630496
1030.262939;0.630496
1030.748047;0.630496
1031.429688;0.630496
1032.308716;0.630496
1032.891724;0.647088
1033.283447;0.630496
1034.161499;0.647088
1034.551514;0.630496
1035.428833;0.647088
1035.914307;0.647088
1036.501343;0.630496
1037.475342;0.630496
1037.768311;0.647088
1038.449341;0.630496
1039.035156;0.630496
1039.621948;0.613904
1040.594482;0.647088
1040.984985;0.630496
1041.671753;0.630496
1042.157227;0.630496
1043.130127;0.630496
1043.425293;0.630496
1044.397461;0.647088
1044.787476;0.647088
1045.372681;0.630496
1046.250244;0.630496
1046.639526;0.630496
1047.321899;0.630496
1048.106079;0.630496
1048.491943;0.630496
1049.467041;0.630496
1049.764160;0.630496
1050.442017;0.647088
1051.515015;0.630496
1051.710815;0.630496
1052.294800;0.630496
1052.977783;0.630496
1053.563110;0.630496
1054.541016;0.630496
1055.319458;0.647088
1055.711060;0.647088
1056.194702;0.630496
1057.171387;0.647088
1057.462158;0.630496
1058.346191;0.647088
1058.730469;0.647088
1059.707764;0.630496
1060.098877;0.630496
1060.679810;0.647088
1061.265747;0.647088
1062.143555;0.647088
1062.630005;0.663680
1063.605347;0.647088
1063.897583;0.647088
1064.579834;0.647088
1065.363647;0.647088
1065.847900;0.630496
1066.432495;0.647088
1067.115601;0.630496
1067.702515;0.647088
1068.485107;0.647088
1069.065308;0.663680
1069.747559;0.647088
1070.332520;0.630496
1071.329590;0.613904
1071.605591;0.630496
1072.186523;0.630496
1072.867920;0.630496
1073.455322;0.613904
1074.427979;0.630496
1074.722046;0.597312
1075.307007;0.630496
1075.890747;0.613904
1076.572510;0.597312
1077.354980;0.613904
1077.744751;0.630496
1078.425415;0.647088
1079.208740;0.647088
1079.692627;0.647088
1080.766113;0.647088
1081.058472;0.680272
1082.130493;0.663680
1082.427246;0.663680
1083.303467;0.663680
1083.692383;0.647088
1084.372681;0.647088
1085.155029;0.613904
1085.839111;0.630496
1086.225342;0.630496
1086.813232;0.647088
1087.492798;0.630496
1088.467773;0.613904
1090.320312;0.779824
1090.418579;0.116144
1091.395752;0.862784
1091.980591;0.746640
1092.759766;0.713456
1092.857300;0.149328
1093.540405;0.298656
1093.830444;0.680272
1094.707764;0.613904
1095.097900;0.630496
1095.788208;0.647088
1096.658325;0.630496
1097.049927;0.630496
1097.635498;0.647088
1098.707520;0.630496
1099.099976;0.630496
1099.974731;0.630496
1100.366821;0.647088
1100.850830;0.647088
1101.827271;0.613904
1102.315552;0.630496
1102.705078;0.613904
1103.779419;0.647088
1104.264648;0.630496
1104.653076;0.647088
1105.535400;0.647088
1105.926758;0.647088
1106.603149;0.663680
1107.483521;0.647088
1107.872681;0.630496
1108.751343;0.647088
1109.138672;0.597312
1109.725708;0.647088
1110.602905;0.647088
1111.088379;0.647088
1111.675293;0.630496
1112.357788;0.647088
1112.943237;0.647088
1113.623291;0.663680
1114.599731;0.647088
1114.990356;0.647088
1115.963989;0.630496
1116.355713;0.647088
1116.842773;0.613904
1117.720093;0.630496
1118.110840;0.630496
1118.989502;0.630496
1119.377808;0.630496
1119.962891;0.630496
1121.035645;0.647088
1121.329956;0.630496
1121.913452;0.630496
1122.790649;0.630496
1123.180420;0.630496
1123.765381;0.630496
1124.838135;0.613904
1125.227661;0.630496
1125.616211;0.613904
1126.594482;0.630496
1127.081177;0.630496
1127.861450;0.630496
1128.348511;0.613904
1128.833374;0.630496
1129.711548;0.630496
1130.004028;0.613904
1130.686035;0.613904
1131.563354;0.613904
1131.858521;0.630496
1132.441772;0.580720
1133.419678;0.613904
1133.711060;0.613904
1134.295654;0.613904
1135.175293;0.613904
1135.563110;0.613904
1136.536499;0.630496
1136.828857;0.613904
1137.416260;0.613904
1137.999268;0.613904
1138.878174;0.647088
1139.266113;0.597312
1139.851196;0.613904
1140.438354;0.597312
1141.120728;0.597312
1141.999390;0.597312
1142.388672;0.630496
1142.971191;0.630496
1143.556152;0.613904
1144.144043;0.613904
1144.728271;0.597312
1145.510742;0.630496
1145.996338;0.597312
1146.481323;0.447984
1147.458862;1.061888
1147.846313;0.348432
1148.431519;0.613904
1149.407227;0.580720
1149.703369;0.564128
1150.578247;0.547536
1150.870605;0.580720
1151.260864;0.564128
1151.845825;0.514352
1152.721436;0.464576
1153.113281;0.647088
1153.501587;0.564128
1154.478394;0.730048
1154.966553;0.730048
1155.843140;0.497760
1156.234741;0.630496
1156.623413;0.564128
1157.208740;0.564128
1158.083984;0.580720
1158.378540;0.580720
1159.161499;0.597312
1159.547363;0.597312
1160.229004;0.613904
1160.815796;0.613904
1161.788940;0.630496
1162.085938;0.613904
1162.668457;0.613904
1163.545410;0.630496
1164.326904;0.613904
1164.715332;0.613904
1165.104858;0.597312
1165.787354;0.630496
1166.664185;0.630496
1167.054565;0.647088
1167.639160;0.630496
1168.226562;0.597312
1168.906982;0.630496
1169.785278;0.613904
1170.174316;0.630496
1170.760986;0.630496
1171.442383;0.647088
1172.319824;0.630496
1172.709839;0.630496
1173.397095;0.630496
1173.979004;0.630496
1174.561890;0.613904
1175.443848;0.630496
1175.828979;0.613904
1176.414307;0.613904
1177.196655;0.597312
1177.582397;0.597312
1178.464355;0.630496
1178.850342;0.613904
1179.437866;0.630496
1180.119507;0.613904
1181.093018;0.647088
1181.385010;0.647088
1182.364502;0.912560
1183.043335;0.763232
1183.823120;0.713456
1184.408447;0.680272
1185.090088;0.647088
1185.874268;0.647088
1186.652832;0.630496
1187.042358;0.630496
1187.627686;0.630496
1188.212646;0.613904
1189.188354;0.630496
1189.482178;0.630496
1190.160156;0.613904
1190.745850;0.630496
1191.332275;0.613904
1192.013428;0.630496
1192.794922;0.630496
1193.280884;0.630496
1193.867310;0.613904
1194.842041;0.630496
1195.137573;0.613904
1196.108154;0.597312
1196.304810;0.597312
1196.985352;0.613904
1197.960815;0.597312
1198.352295;0.613904
1198.742310;0.613904
1199.424927;0.630496
1200.010498;0.613904
1200.595459;0.630496
1201.472290;0.647088
1201.958130;0.630496
1202.544800;0.613904
1203.422852;0.630496
1203.812622;0.613904
1204.395630;0.613904
1204.981445;0.613904
1205.662964;0.630496
1206.445190;0.613904
1206.930908;0.647088
1207.613159;0.663680
1208.200073;0.663680
1209.173706;0.647088
1209.563843;0.663680
1210.345215;0.647088
1210.830688;0.647088
1211.903076;0.630496
1212.198242;0.630496
1212.683960;0.630496
1213.365601;0.647088
1214.244995;0.630496
1215.023071;0.613904
1215.415161;0.630496
1215.901001;0.630496
1216.486450;0.647088
1217.464722;0.647088
1217.851074;0.647088
1218.533813;0.663680
1219.410522;0.663680
1219.800781;0.647088
1220.385742;0.630496
1221.267700;0.630496
1221.654785;0.630496
1222.631348;0.630496
1223.022949;0.613904
1223.898926;0.630496
1224.189697;0.647088
1224.872681;0.647088
1225.553345;0.663680
1226.435547;0.663680
1226.821289;0.663680
1227.505371;0.680272
1228.188110;0.663680
1228.869141;0.663680
1229.651611;0.647088
1230.135864;0.647088
1230.821289;0.647088
1231.699341;0.613904
1232.088013;0.647088
1232.965454;0.630496
1233.355591;0.630496
1233.940552;0.630496
1234.915405;0.630496
1235.208862;0.647088
1235.890503;0.613904
1236.769409;0.580720
1237.059204;0.647088
1237.938843;0.630496
1238.326050;0.613904
1238.912842;0.613904
1239.594238;0.630496
1240.280151;0.613904
1240.768555;0.613904
1241.447998;0.597312
1242.032349;0.613904
1242.616821;0.613904
1243.304077;0.613904
1243.883667;0.613904
1244.470703;0.613904
1245.151611;0.647088
1246.029297;0.597312
1246.323364;0.613904
1247.103760;0.597312
1247.589355;0.613904
1248.078247;0.580720
1248.955200;0.613904
1249.346680;0.647088
1250.028320;0.630496
1250.908203;0.647088
1251.298584;0.580720
1252.268799;0.580720
1252.562378;0.547536
1252.951416;0.564128
1253.928345;0.597312
1254.220825;0.597312
1255.098633;0.547536
1255.296753;0.564128
1256.073486;0.597312
1256.463379;0.597312
1257.438477;0.613904
1257.828735;0.613904
1258.313843;0.613904
1258.899414;0.613904
1259.681152;0.613904
1260.167236;0.630496
1261.043945;0.630496
1261.434082;0.630496
1262.018921;0.630496
1262.901001;0.647088
1263.384033;0.663680
1264.066895;0.680272
1264.653564;0.663680
1265.334839;0.663680
1266.408447;0.663680
1266.699463;0.663680
1267.381714;0.663680
1267.966553;0.647088
1268.848145;0.647088
1269.723877;0.647088
1270.113647;0.647088
1270.599243;0.647088
1271.481812;0.647088
1271.867432;0.663680
1272.549805;0.647088
1273.331421;0.647088
1274.112427;0.647088
1274.892700;0.647088
1275.281006;0.647088
1275.769287;0.630496
1276.449829;0.680272
1277.327637;0.680272
1277.816162;0.680272
1278.914795;0.696864
1279.180054;0.680272
1279.862549;0.663680
1280.545654;0.663680
1281.131592;0.597312
1282.013062;0.647088
1282.398193;0.613904
1283.480713;0.696864
1284.445068;1.327360
1285.712769;0.962336
1285.907227;0.580720
1286.596436;0.647088
1287.761353;0.813008
1288.345215;0.945744
1289.319580;0.962336
1290.004272;0.730048
1290.978149;0.530944
1291.367554;0.796416
1292.050171;0.696864
1292.635376;0.530944
1293.122070;0.497760
1293.514404;0.447984
1293.711182;0.149328
1294.588135;0.514352
1295.271484;1.045296
1295.754639;0.497760
1296.343750;0.248880
1296.443115;0.149328
1296.755127;0.514352
1296.757324;0.066368
1297.850342;0.564128
1298.195557;0.929152
1298.874634;0.663680
1300.144287;0.945744
1301.803467;0.696864
1302.190918;0.630496
1302.971924;0.464576
1303.072266;0.348432
1303.459595;0.481168
1303.847412;0.315248
1304.627319;0.779824
1305.505249;0.630496
1305.896851;0.663680
1306.775635;0.680272
1307.259766;0.663680
1308.137329;0.647088
1308.433594;0.564128
1309.018555;0.547536
1309.599854;0.613904
1310.577026;0.597312
1311.064575;0.597312
1311.454468;0.680272
1312.135864;0.613904
1312.722046;0.597312
1313.305664;0.613904
1314.088013;0.613904
1314.576172;0.630496
1315.159912;0.630496
1315.840088;0.630496
1316.424927;0.647088
1317.109985;0.663680
1317.792236;0.630496
1318.671875;0.630496
1319.450195;0.613904
1319.741821;0.597312
1320.227783;0.613904
1320.910767;0.630496
1321.787598;0.647088
1322.177490;0.630496
1322.762573;0.647088
1323.446899;0.663680
1324.127808;0.647088
1324.715210;0.647088
1325.593506;0.663680
1326.467529;0.663680
1326.764038;0.647088
1327.643433;0.663680
1328.028564;0.663680
1328.710205;0.647088
1329.296021;0.630496
1329.977783;0.647088
1330.760132;0.630496
1331.247803;0.647088
1331.929810;0.630496
1332.513184;0.613904
1333.433350;0.663680
1334.078735;0.647088
1334.855347;0.613904
1335.150879;0.647088
1335.731323;0.630496
1336.611206;0.580720
1337.003784;0.647088
1337.585815;0.647088
1338.462646;0.630496
1339.338623;0.647088
1339.634277;0.647088
1340.120239;0.630496
1340.801270;0.647088
1341.877441;0.630496
1342.166748;0.613904
1342.655151;0.647088
1343.336060;0.613904
1343.922363;0.580720
1344.603149;0.680272
1345.580078;0.613904
1345.972534;0.696864
1346.455688;0.613904
1347.431030;0.613904
1347.723022;0.630496
1348.604736;0.647088
1348.991699;0.630496
1349.968750;0.613904
1350.552124;0.647088
1350.942749;0.680272
1351.625122;0.647088
1352.305664;0.680272
1352.988159;0.663680
1353.868042;0.663680
1354.257324;0.663680
1354.938843;0.647088
1355.817261;0.647088
1356.205811;0.613904
1357.183838;0.630496
1357.574463;0.663680
1358.158447;0.663680
1359.035889;0.663680
1359.425293;0.663680
1360.106079;0.663680
1360.987427;0.680272
1361.472778;0.663680
1362.447021;0.663680
1362.835815;0.647088
1363.422974;0.647088
1364.496094;0.647088
1364.785889;0.663680
1365.468384;0.680272
1366.346436;0.647088
1366.738403;0.663680
1367.615112;0.680272
1368.100952;0.663680
1368.783569;0.680272
1369.758911;0.647088
1370.051392;0.680272
1371.026611;0.647088
1371.417969;0.696864
1372.099365;0.647088
1373.076416;0.647088
1373.564331;0.630496
1373.953125;0.630496
1374.635498;0.680272
1375.513306;0.647088
1375.901855;0.580720
1376.682251;0.497760
1377.071045;0.630496
1377.753540;0.680272
1378.635498;0.680272
1379.218506;0.846192
1380.097046;0.647088
1380.486084;0.630496
1381.166260;0.647088
1382.143066;0.680272
1382.629883;0.597312
1383.116211;0.630496
1383.994263;0.647088
1384.383911;0.647088
1385.360107;0.680272
1385.653931;0.647088
1386.333862;0.630496
1387.215942;0.630496
1387.601807;0.647088
1388.283813;0.663680
1389.164551;0.680272
1390.234253;0.912560
1391.016602;0.713456
1391.111938;0.182512
1391.114502;0.149328
1391.403809;0.248880
1391.504761;0.116144
1391.796387;0.564128
1392.573853;0.348432
1392.866455;0.514352
1393.159180;0.497760
1393.258667;0.082960
1394.039429;0.331840
1394.135376;0.149328
1394.426636;0.630496
1395.404907;0.680272
1395.795898;0.663680
1395.891235;0.132736
1396.766357;0.696864
1397.059204;0.348432
1397.448975;0.315248
1398.132080;0.696864
1398.132935;0.033184
1398.816284;0.315248
1398.914673;0.165920
1399.011353;0.232288
1399.205200;0.199104
1399.206421;0.033184
1399.497925;0.365024
1400.083496;0.613904
1400.666504;0.564128
1401.544067;0.647088
1401.646729;0.348432
1402.323975;0.663680
1403.298950;0.696864
1403.594116;0.630496
1404.566528;0.696864
1404.959351;0.663680
1405.639771;0.663680
1406.613892;0.647088
1406.911011;0.630496
1407.979736;0.613904
1408.370728;0.613904
1409.152222;0.613904
1409.543213;0.597312
1410.323242;0.647088
1410.617188;0.647088
1411.296509;0.647088
1412.174805;0.647088
1412.954468;0.663680
1413.441528;0.813008
1414.121826;0.680272
1415.098999;0.613904
1415.392700;0.597312
1415.976318;0.663680
1416.656738;0.696864
1417.436768;0.730048
1418.220703;0.663680
1418.707031;0.647088
1419.388916;0.647088
1419.974121;0.630496
1420.851562;0.696864
1421.826538;0.663680
1422.216919;0.647088
1422.801514;0.763232
1423.874390;0.829600
1424.168579;0.331840
1424.457153;0.414800
1425.532837;0.796416
1426.313721;0.763232
1427.187622;0.730048
1427.479736;0.597312
1428.067261;0.613904
1429.140503;0.978928
1429.819946;0.763232
1430.895020;0.696864
1431.286255;0.763232
1431.574585;0.282064
1432.552490;0.813008
1433.238770;0.846192
1433.914673;0.680272
1434.796387;0.630496
1435.183594;0.713456
1436.159546;0.696864
1436.549194;0.663680
1437.232300;0.680272
1438.013062;0.630496
1438.594971;0.663680
1439.181763;0.663680
1440.155396;0.680272
1440.642944;0.713456
1441.523315;0.696864
1442.008057;0.713456
1442.986206;0.696864
1443.377563;0.696864
1444.152222;0.680272
1444.739502;0.647088
1445.420166;0.630496
1446.399536;0.647088
1446.687500;0.680272
1447.372803;0.696864
1448.540894;0.696864
1448.833252;0.730048
1449.812012;0.730048
1450.296997;0.730048
1451.077026;0.730048
1452.049927;0.696864
1452.343384;0.663680
1453.026978;0.680272
1454.000732;0.680272
1454.392578;0.680272
1455.268921;0.663680
1455.756714;0.680272
1456.439575;0.680272
1457.514648;0.796416
1457.805908;0.497760
1458.778320;0.680272
1459.071777;0.597312
1460.630005;1.128256
1460.927002;0.713456
1461.605225;0.696864
1462.485229;0.696864
1462.970947;0.680272
1463.657837;0.680272
1464.335449;0.663680
1465.017700;0.680272
1465.602783;0.663680
1466.580688;0.680272
1466.969849;0.696864
1467.945068;0.696864
1468.430176;0.713456
1469.406006;0.713456
1469.893066;0.730048
1470.577271;0.730048
1471.455933;0.730048
1472.037720;0.730048
1472.723145;0.696864
1473.500366;0.696864
1474.381226;0.680272
1474.769897;0.663680
1475.647461;0.680272
1476.134888;0.663680
1477.012939;0.647088
1477.498535;0.663680
1478.376343;0.680272
1478.863403;0.680272
1479.545532;0.696864
1480.330322;0.680272
1480.911377;0.680272
1481.692871;0.663680
1482.180054;0.663680
1483.057983;0.663680
1483.448120;0.597312
1484.130127;0.663680
1484.715210;0.630496
1485.787964;0.647088
1486.081055;0.647088
1486.765503;0.663680
1487.443481;0.680272
1488.421265;0.663680
1488.810181;0.680272
1489.395020;0.680272
1490.075684;0.647088
1490.758179;0.663680
1491.831177;0.663680
1492.124268;0.663680
1492.710327;0.663680
1493.591064;0.663680
1494.465576;0.680272
1494.757080;0.663680
1495.732422;0.663680
1496.024170;0.663680
1496.708008;0.663680
1497.681641;0.680272
1498.071045;0.647088
1499.143555;0.647088
1499.533813;0.647088
1500.413818;0.663680
1500.714233;0.647088
1501.290405;0.630496
1501.971436;0.630496
1502.752563;0.647088
1503.336426;0.730048
1503.825562;0.514352
1504.703247;0.680272
1506.164185;1.244400
1506.456055;0.630496
1507.138916;0.746640
1508.116699;0.647088
1508.698486;0.895968
1509.674072;0.630496
1509.873169;0.514352
1510.551392;0.730048
1511.530029;0.663680
1511.916504;0.696864
1512.503052;0.597312
1513.379761;0.613904
1513.769165;0.613904
1514.354248;0.597312
1515.135986;0.597312
1515.527344;0.613904
1516.111328;0.613904
1516.892334;0.613904
1517.376221;0.613904
1518.448730;0.630496
1518.840820;0.597312
1519.719360;0.746640
1520.106201;0.381616
1520.403564;0.663680
1520.986084;0.597312
1521.570923;0.597312
1522.353271;0.597312
1523.131714;0.630496
1523.911499;0.647088
1524.205933;0.647088
1524.786377;0.630496
1525.762695;0.613904
1526.054321;0.647088
1526.640869;0.613904
1527.518677;0.630496
1528.330811;0.630496
1528.688477;0.647088
1529.176025;0.647088
1529.856812;0.663680
1530.834473;0.647088
1531.416870;0.647088
1532.198486;0.663680
1532.494019;0.663680
1533.074707;0.580720
1533.756470;0.663680
1534.638916;0.680272
1535.024780;0.630496
1536.001587;0.564128
1536.391602;0.647088
1537.269287;0.663680
1537.755859;0.597312
1538.146118;0.613904
1539.121094;0.663680
1539.413574;0.597312
1540.289185;0.613904
1540.586060;0.597312
1541.558716;0.613904
1541.849976;0.680272
1542.922241;0.680272
1543.313843;0.713456
1543.994507;0.696864
1544.972290;0.680272
1545.359741;0.663680
1546.336304;0.630496
1546.534180;0.597312
1547.214600;0.696864
1548.091797;0.580720
1548.481323;0.663680
1549.066406;0.613904
1549.748779;0.663680
1550.721802;0.663680
1551.111938;0.647088
1551.991943;0.613904
1552.380127;0.647088
1552.964966;0.630496
1553.748291;0.647088
1554.329834;0.713456
1557.350342;0.564128
1557.443359;0.613904
1557.457886;0.680272
1557.462524;0.713456
1557.644775;0.696864
1558.719604;0.796416
1559.015381;0.647088
1559.792603;0.779824
1561.057617;0.680272
1561.642090;0.663680
1562.326538;0.696864
1562.910278;0.680272
1563.401367;0.680272
1564.374146;0.696864
1565.055298;0.730048
1565.349731;0.696864
1566.226318;0.713456
1566.537476;0.464576
1567.396118;0.580720
1568.077515;0.912560
1569.052124;0.713456
1569.444336;0.713456
1570.027222;0.547536
1571.103149;0.746640
1571.396729;0.647088
1571.979370;0.597312
1572.859009;0.580720
1573.636841;0.613904
1573.929443;0.597312
1574.414795;0.647088
1575.099121;0.647088
1576.462402;1.012112
1576.852295;0.746640
1578.024902;0.813008
1578.609863;0.746640
1579.097412;0.730048
1579.974243;0.730048
1580.559082;0.730048
1581.337402;0.713456
1582.312866;0.680272
1582.604858;0.630496
1583.288086;0.613904
1583.872314;0.597312
1584.947144;0.730048
1585.144409;0.497760
1585.727051;0.696864
1586.407837;0.647088
1587.093872;0.497760
1587.968018;0.713456
1588.359497;0.713456
1589.236694;0.663680
1589.724854;0.730048
1590.894653;1.194624
1592.065674;0.746640
1592.359253;0.696864
1593.430786;0.713456
1593.915649;0.779824
1594.697144;0.862784
1595.772339;0.862784
1596.352539;0.713456
1597.425537;0.647088
1597.721191;0.630496
1598.205200;0.580720
1599.084839;0.564128
1599.572876;0.613904
1599.962158;0.647088
1600.643188;0.680272
1601.327271;0.680272
1602.110107;0.696864
1602.788086;0.696864
1603.470215;0.713456
1604.350098;0.696864
1604.835327;0.696864
1605.909058;0.663680
1606.201050;0.680272
1606.882935;0.663680
1607.665161;0.630496
1608.443848;0.597312
1608.735718;0.597312
1609.712158;0.630496
1610.104126;0.647088
1610.980713;0.696864
1611.368286;0.663680
1612.050537;0.680272
1612.929077;0.597312
1613.222656;0.630496
1613.807495;0.597312
1614.488403;0.613904
1615.072998;0.597312
1615.666748;0.630496
1616.539673;0.630496
1616.926636;0.647088
1617.610229;0.663680
1618.682983;0.647088
1618.973145;0.663680
1619.951538;0.663680
1620.342407;0.680272
1620.925903;0.680272
1621.900146;0.713456
1622.385742;0.696864
1623.460693;0.696864
1623.755127;0.680272
1624.433228;0.663680
1625.310791;0.647088
1625.707764;0.647088
1626.383301;0.647088
1627.264893;0.680272
1627.750488;0.680272
1628.430786;0.713456
1629.115845;0.680272
1629.795776;0.680272
1630.775757;0.663680
1631.160889;0.663680
1631.844604;0.680272
1632.530518;0.680272
1633.208374;0.680272
1634.186523;0.713456
1634.671509;0.746640
1635.256470;0.597312
1636.133911;0.647088
1636.720459;0.813008
1637.401367;0.680272
1638.183472;0.663680
1639.057861;0.647088
1639.354004;0.680272
1640.031738;0.680272
1641.009644;0.663680
1641.300171;0.630496
1641.982910;0.647088
1642.861084;0.647088
1643.251465;0.663680
1643.933472;0.680272
1644.910278;0.680272
1645.393921;0.696864
1645.982544;0.680272
1647.149048;1.078480
1648.222168;0.796416
1648.612427;0.746640
1649.591064;0.696864
1649.978882;0.663680
1650.659180;0.647088
1651.734131;0.663680
1651.929199;0.630496
1652.612915;0.414800
1653.001953;0.647088
1654.071533;0.779824
1654.366821;0.613904
1655.046631;0.663680
1656.219604;1.128256
1657.192383;0.680272
1657.484131;0.613904
1658.559570;0.647088
1658.849731;0.447984
1659.239258;0.630496
1659.921753;0.647088
1660.800781;0.663680
1661.581787;0.663680
1661.971924;0.630496
1662.456787;0.580720
1663.139648;0.696864
1664.117798;0.680272
1664.504639;0.680272
1664.894653;0.447984
1665.577637;0.630496
1666.162720;0.647088
1667.235840;0.696864
1667.527710;0.663680
1668.209351;0.663680
1669.088745;0.647088
1669.574585;0.680272
1670.646973;0.663680
1670.943481;0.647088
1671.917358;0.663680
1672.211060;0.647088
1673.090210;0.680272
1673.474731;0.647088
1674.159180;0.663680
1674.941528;0.663680
1675.816650;0.663680
1676.305054;0.647088
1676.789551;0.663680
1677.864014;0.647088
1678.257446;0.680272
1678.839111;0.696864
1679.424194;0.630496
1680.107056;0.630496
1680.984863;0.647088
1681.374146;0.647088
1682.055054;0.663680
1682.737183;0.663680
1683.614624;0.597312
1684.006714;0.696864
1684.884399;0.647088
1685.369751;0.663680
1685.954834;0.647088
1686.637817;0.647088
1687.223022;0.647088
1687.906738;0.647088
1688.689209;0.663680
1690.440430;0.978928
1691.613403;0.846192
1692.004517;0.763232
1692.974609;0.680272
1693.171753;0.298656
1693.270264;0.298656
1694.047852;0.713456
1694.730591;0.713456
1695.609741;0.597312
1695.997437;0.647088
1696.680176;0.680272
1697.654907;0.696864
1698.438721;0.680272
1698.632568;0.630496
1699.314453;0.647088
1699.995361;0.696864
1700.874878;0.713456
1701.360352;0.680272
1702.140015;0.713456
1702.824951;0.696864
1703.410156;0.647088
1704.190430;0.564128
1704.675171;0.647088
1705.845703;0.663680
1706.333008;0.647088
1706.627075;0.630496
1707.506104;0.680272
1708.091309;0.713456
1709.163208;0.746640
1709.454712;0.746640
1710.235962;0.763232
1711.308960;0.746640
1711.793213;0.746640
1712.672607;0.746640
1713.255249;0.746640
1714.035889;0.730048
1715.109985;0.713456
1715.403320;0.713456
1716.474854;0.730048
1716.866821;0.730048
1717.642822;0.730048
1718.325317;0.713456
1719.010010;0.713456
1720.080322;0.713456
1720.470459;0.713456
1721.445435;0.730048
1721.933350;0.713456
1722.615479;0.696864
1723.495605;0.680272
1723.980469;0.680272
1724.662964;0.663680
1725.541992;0.680272
1726.323242;0.680272
1726.811523;0.647088
1727.295654;0.630496
1727.881470;0.647088
1728.860840;0.663680
1729.245972;0.696864
1729.930664;0.696864
1730.612671;0.680272
1731.294434;0.680272
1732.172485;0.663680
1732.658691;0.663680
1733.340698;0.663680
1734.315552;0.630496
1734.707520;0.647088
1735.392456;0.647088
1735.878296;0.663680
1736.560425;0.663680
1737.241455;0.647088
1738.023804;0.647088
1738.508301;0.647088
1739.192993;0.663680
1739.873901;0.647088
1740.656006;0.630496
1741.141113;0.647088
1741.727905;0.647088
1742.704956;0.647088
1743.090820;0.647088
1743.676636;0.630496
1744.651978;0.663680
1745.041626;0.663680
1745.823853;0.680272
1746.406250;0.696864
1747.089233;0.680272
1747.774658;0.680272
1748.846069;0.680272
1749.237427;0.680272
1749.819214;0.663680
1750.406372;0.663680
1751.086060;0.630496
1751.967773;0.630496
1752.550293;0.647088
1753.065918;0.647088
1753.719360;0.663680
1754.600830;0.663680
1754.986938;0.680272
1755.668701;0.680272
1756.547974;0.663680
1757.033691;0.680272
1757.718872;0.680272
1758.400757;0.663680
1759.081177;0.663680
1759.666138;0.663680
1760.350586;0.663680
1761.033203;0.630496
1761.616211;0.597312
1762.202026;0.630496
1763.273804;0.630496
1763.666382;0.613904
1764.055786;0.630496
1764.736816;0.613904
1765.518311;0.647088
1766.004028;0.613904
1766.590820;0.613904
1767.565918;0.630496
1768.052979;0.630496
1768.539551;0.647088
1769.320435;0.630496
1769.711670;0.613904
1770.297363;0.597312
1771.171875;0.613904
1771.562134;0.613904
1772.345215;0.630496
1772.828857;0.630496
1774.000366;0.663680
1774.391479;0.663680
1774.876953;0.680272
1775.558960;0.713456
1776.440430;0.696864
1776.926758;0.663680
1777.804199;0.630496
1778.193604;0.613904
1778.778564;0.630496
1779.753662;0.613904
1780.239502;0.530944
1780.629150;0.647088
1781.216553;0.613904
1781.799194;0.613904
1782.582520;0.580720
1782.971069;0.580720
1783.554077;0.580720
1784.139160;0.580720
1785.021729;0.613904
1785.406616;0.630496
1786.288452;0.663680
1786.674927;0.663680
1787.360840;0.680272
1788.432861;0.680272
1788.722046;0.647088
1789.406006;0.680272
1790.087524;0.663680
1790.674194;0.647088
1791.552124;0.647088
1792.036743;0.630496
1792.622192;0.647088
1793.599976;0.647088
1794.087402;0.663680
1794.573853;0.647088
1795.255127;0.663680
1795.938843;0.647088
1797.011963;0.680272
1797.302002;0.663680
1797.889038;0.663680
1798.569458;0.647088
1799.351440;0.647088
1799.837646;0.630496
1800.619751;0.613904
1801.104492;0.613904
1801.689575;0.630496
1802.664551;0.630496
1803.153809;0.713456
1804.127075;0.597312
1804.327515;0.663680
1805.203613;0.647088
1805.981689;0.613904
1806.468994;0.597312
1806.760010;0.597312
1807.736572;0.597312
1808.030884;0.597312
1808.612061;0.580720
1809.490112;0.580720
1810.076538;0.597312
1810.369385;0.613904
1811.247314;0.647088
1811.638672;0.663680
1813.099976;1.144848
1813.685425;0.796416
1814.269531;0.696864
1815.049438;0.713456
1815.439209;0.464576
1815.827393;0.331840
1816.220215;0.414800
1817.193726;0.680272
1817.390869;0.398208
1818.364746;0.912560
1818.367920;0.182512
1818.559814;0.199104
1819.239868;0.663680
1819.925171;0.680272
1820.606934;0.663680
1821.287354;0.663680
1822.265747;0.680272
1822.652344;0.730048
1823.432373;0.730048
1824.212402;0.779824
1825.284912;0.779824
1825.783447;0.763232
1826.454956;0.730048
1827.240234;0.680272
1827.819946;0.663680
1828.406982;0.597312
1828.989990;0.597312
1829.575684;0.564128
1830.163940;0.630496
1830.942017;0.730048
1831.915039;0.713456
1832.307495;0.680272
1832.987671;0.647088
1833.865479;0.746640
1834.547485;0.813008
1835.330322;0.796416
1836.499756;0.796416
1836.989746;0.746640
1837.572144;0.730048
1838.350220;0.713456
1839.230591;0.680272
1839.813110;0.663680
1840.397827;0.647088
1840.982788;0.647088
1841.567749;0.647088
1842.252686;0.680272
1842.934814;0.663680
1843.615845;0.680272
1844.496704;0.696864
1845.468628;0.696864
1845.861206;0.696864
1846.443359;0.696864
1847.125244;0.696864
1848.101562;0.696864
1848.492432;0.663680
1849.172852;0.663680
1850.147949;0.680272
1850.540527;0.696864
1851.318970;0.663680
1851.905151;0.696864
1852.977295;0.680272
1853.270142;0.696864
1853.950806;0.713456
1855.024414;0.680272
1855.245117;0.564128
1856.389893;0.962336
1856.973267;0.796416
1857.557983;0.547536
1858.338013;0.696864
1859.021362;0.763232
1859.804810;0.680272
1860.485107;0.779824
1861.166138;0.680272
1862.238037;0.746640
1862.630371;0.763232
1863.507446;0.713456
1863.995483;0.663680
1864.675659;0.663680
1865.652710;0.763232
1866.140869;0.713456
1867.017944;0.680272
1867.408325;0.547536
1868.088379;0.696864
1868.773315;0.713456
1869.943604;0.763232
1870.433594;0.730048
1871.308472;0.746640
1871.796143;0.746640
1872.672607;0.713456
1873.255859;0.730048
1874.234253;0.713456
1874.720459;0.746640
1875.401001;0.696864
1876.377808;0.713456
1876.768066;0.696864
1877.647949;0.663680
1878.133545;0.647088
1878.815430;0.680272
1879.500610;0.713456
1880.181152;0.713456
1880.958618;0.696864
1881.934570;0.696864
1882.231445;0.630496
1882.813110;0.564128
1883.493774;0.630496
1884.470703;0.630496
1884.861328;0.597312
1885.445923;0.647088
1886.322388;0.630496
1886.616089;0.647088
1887.686768;0.696864
1888.271606;0.713456
1888.758545;0.713456
1890.166992;0.696864
1890.193115;0.547536
1890.711792;0.763232
1891.781128;0.680272
1892.076904;0.663680
1892.757812;0.663680
1893.636475;0.663680
1894.049316;0.630496
1894.610352;0.613904
1895.780396;0.846192
1896.563110;0.929152
1896.955811;0.564128
1897.631348;0.547536
1898.023071;0.481168
1898.902100;0.680272
1899.001831;0.298656
1899.097046;0.049776
1899.099365;0.033184
1899.290649;0.165920
1899.291260;0.049776
1899.292725;0.033184
1899.386719;0.033184
1899.583130;0.232288
1899.876099;0.265472
1900.166748;0.298656
1900.756470;0.348432
1901.340454;0.365024
1901.536133;0.348432
1901.921753;0.414800
1902.409790;0.497760
1902.606201;0.149328
1902.898682;0.298656
1903.579956;0.696864
1904.265259;0.447984
1904.458496;0.033184
1904.751099;0.298656
1905.629028;0.846192
1906.991577;1.012112
1907.772095;0.813008
1908.261108;0.547536
1909.137207;0.580720
1909.431152;0.580720
1910.604126;0.580720
1910.698975;0.049776
1910.892334;0.182512
1911.379883;0.530944
1912.061646;0.613904
1912.256592;0.199104
1912.549683;0.315248
1913.137939;0.248880
1913.233765;0.199104
1913.623535;0.265472
1914.795532;0.282064
1914.891113;0.182512
1915.182251;0.248880
1915.865723;0.481168
1916.742798;0.696864
1918.109131;0.962336
1918.302002;0.298656
1918.789795;0.431392
1919.182007;0.414800
1919.471680;0.315248
1919.959961;0.464576
1920.448608;0.497760
1920.836914;0.398208
1921.811768;0.497760
1922.300293;0.248880
1922.591675;0.315248
1923.274658;0.680272
1924.153931;0.746640
1924.736938;0.696864
1925.322144;0.464576
1926.006226;0.663680
1926.688721;0.730048
1927.371216;0.630496
1928.051758;0.663680
1928.734985;0.696864
1929.320190;0.597312
1930.003174;0.331840
1930.391846;0.696864
1931.074585;0.680272
1932.051636;0.680272
1932.814819;0.365024
1932.815430;0.613904
1933.417480;0.613904
1933.804199;0.464576
1934.488770;0.680272
1935.365112;0.696864
1936.243164;0.696864
1936.343018;0.348432
1936.533569;0.298656
1937.118774;0.647088
1938.529053;0.945744
1938.776978;0.730048
1939.564331;0.696864
1940.140625;0.613904
1941.213745;0.779824
1941.630859;0.680272
1942.774902;1.161440
1943.458496;0.746640
1944.140381;0.663680
1944.920776;0.746640
1945.406128;0.464576
1945.895630;0.564128
1946.773560;0.746640
1947.746216;0.746640
1948.135742;0.663680
1948.821289;0.763232
1949.892456;0.813008
1950.378540;0.730048
1950.866089;0.431392
1951.548218;0.680272
1952.426025;0.730048
1952.912842;0.680272
1953.499390;0.613904
1954.376831;0.414800
1954.767090;0.829600
1955.741211;0.779824
1956.325562;0.763232
1957.009888;0.713456
1957.496582;0.481168
1958.373779;0.630496
1958.568237;0.431392
1959.445801;0.879376
1960.518799;0.730048
1960.618042;0.315248
1961.690918;0.945744
1962.175903;0.696864
1963.153931;0.862784
1963.736450;0.680272
1964.712769;0.995520
1965.784546;0.829600
1966.270996;0.730048
1967.248779;0.779824
1967.638062;0.613904
1968.220947;0.564128
1969.297485;0.763232
1970.173340;0.813008
1970.574219;0.696864
1970.853638;0.331840
1971.926514;0.713456
