timestamp;x;y;z
1.316176;-0.382080;0.873779;-0.061279
1.316454;-0.369141;0.972656;-0.081055
1.316696;-0.369873;1.011963;-0.046875
1.316976;-0.290039;0.941162;-0.007568
1.405293;-0.318848;1.105225;-0.005859
1.405583;-0.360107;1.078369;0.031982
1.405829;-0.392578;0.931885;0.100342
1.406064;-0.482666;1.032471;0.078125
1.585420;-0.460205;1.049805;0.119873
1.585708;-0.436768;1.015137;0.149414
1.585955;-0.446045;0.994629;0.129883
1.586189;-0.466797;1.006348;0.142822
1.675671;-0.477783;0.988770;0.189941
1.676066;-0.466553;0.975586;0.213135
1.676313;-0.493408;0.993408;0.216797
1.676547;-0.525391;0.965820;0.218018
1.855631;-0.517090;0.919189;0.278809
1.855929;-0.498291;0.886719;0.327148
1.856173;-0.471191;0.823730;0.373047
1.856405;-0.458252;0.734863;0.431396
1.945131;-0.449951;0.696045;0.494873
1.945418;-0.444580;0.752930;0.557617
1.945658;-0.420410;0.826416;0.596436
1.945889;-0.421875;0.699951;0.639648
2.035108;-0.422119;0.658936;0.690918
2.035409;-0.421875;0.657471;0.715820
2.035654;-0.430420;0.548340;0.682373
2.035888;-0.419434;0.552002;0.714111
2.215295;-0.398682;0.594727;0.736572
2.215599;-0.395996;0.549805;0.670898
2.215986;-0.385742;0.649902;0.731201
2.216220;-0.420654;0.645020;0.764160
2.314429;-0.405762;0.707031;0.717041
2.314771;-0.440186;0.602539;0.677979
2.315011;-0.419434;0.663330;0.740234
2.315245;-0.410156;0.631348;0.705322
2.935107;-0.484863;0.539795;0.612549
2.935559;-0.494385;0.385254;0.621582
2.935802;-0.431396;0.543945;0.666992
2.936036;-0.463623;0.485107;0.539795
2.937742;-0.449951;0.541260;0.585938
2.938002;-0.367188;0.595459;0.624756
2.938238;-0.314453;0.551025;0.519043
2.938466;-0.162842;0.601807;0.609131
3.025431;-0.009766;0.720215;0.710449
3.025721;0.021484;0.570557;0.724609
3.025960;0.055664;0.642822;0.825684
3.026260;0.019775;0.686279;0.905029
3.115144;-0.301025;0.915771;1.148682
3.115433;-0.074219;0.621094;1.014404
3.115673;-0.166016;0.558350;0.852539
3.116041;-0.088623;0.562256;0.769287
3.206355;-0.130127;0.444580;0.826416
3.206742;-0.128174;0.476807;0.869141
3.206979;-0.211426;0.423340;0.959961
3.207208;-0.214111;0.502930;0.901367
3.208070;-0.182373;0.620361;0.806396
3.208310;-0.127441;0.496826;0.857666
3.208539;-0.109863;0.468018;0.901855
3.208762;-0.117432;0.459717;0.839600
3.295979;-0.100342;0.559326;0.830811
3.296282;-0.145752;0.372314;0.901855
3.296656;-0.175537;0.356445;0.983154
3.296889;-0.157471;0.340820;1.010254
3.306063;-0.151367;0.292969;1.099365
3.306257;-0.083008;0.181396;1.009033
3.306845;-0.022461;0.223389;0.955322
3.307106;-0.081787;0.296631;0.920166
3.835337;-0.078369;0.234863;0.886230
3.835642;-0.087646;0.248047;0.927002
3.835885;-0.040771;0.281250;0.944092
3.836243;-0.003174;0.458252;1.057129
3.839443;-0.055176;0.507568;0.981201
3.839685;-0.045898;0.416260;0.931641
3.839917;-0.029297;0.383545;0.929443
3.840143;-0.062744;0.341064;0.945312
3.926024;-0.073486;0.354248;0.953613
3.926351;-0.064697;0.357178;0.940186
3.926675;-0.064453;0.317139;0.944580
3.926906;-0.056641;0.308594;0.967285
4.015359;-0.064453;0.290283;0.942139
4.015663;-0.079834;0.300781;0.925781
4.016026;-0.081055;0.278320;0.925781
4.016262;-0.088135;0.287598;0.935547
4.018319;-0.084717;0.313965;0.929199
4.018557;-0.066406;0.302734;0.946777
4.018787;-0.083496;0.374268;0.912598
4.019013;-0.039795;0.363525;0.994385
4.105504;-0.018555;0.281982;1.018066
4.105794;-0.010742;0.392822;0.945068
4.106035;0.000977;0.189209;0.877686
4.106266;-0.062500;0.268799;1.011963
4.203592;-0.098389;0.310059;1.005615
4.204028;-0.013672;0.322021;0.938721
4.204276;0.039551;0.324951;0.947021
4.204514;-0.015137;0.298096;0.981934
4.375251;-0.040283;0.347412;0.919678
4.375539;-0.019531;0.360596;0.931396
4.375779;-0.057373;0.545410;0.988770
4.376008;-0.010254;0.455811;0.815430
4.465327;-0.069580;0.354980;0.880615
4.465611;-0.042236;0.401123;0.932373
4.465852;-0.059082;0.358887;0.947998
4.466081;-0.042480;0.368408;0.958008
4.555129;-0.034424;0.309570;0.962158
4.555416;-0.043945;0.315186;0.965576
4.555656;-0.038574;0.318359;0.956055
4.555886;-0.042236;0.348145;0.951172
4.735372;-0.036621;0.352783;0.963379
4.735667;-0.047852;0.318604;0.954834
4.735916;-0.055664;0.321533;0.941650
4.736150;-0.053223;0.320801;0.946289
4.825094;-0.053711;0.325684;0.945312
4.825377;-0.050537;0.312500;0.953857
4.825616;-0.052002;0.322021;0.944580
4.825847;-0.050293;0.324707;0.954102
5.005148;-0.050049;0.308838;0.964111
5.005438;-0.057129;0.309326;0.950928
5.005677;-0.062500;0.333008;0.944336
5.005907;-0.056885;0.326172;0.947266
5.096113;-0.060547;0.315918;0.951904
5.096385;-0.058594;0.311523;0.951904
5.096624;-0.056641;0.311523;0.955322
5.096854;-0.059814;0.314697;0.945312
5.185322;-0.059570;0.292725;0.952881
5.185641;-0.065674;0.300293;0.958496
5.185882;-0.055176;0.317383;0.953125
5.186113;-0.053955;0.314453;0.954834
5.365083;-0.058105;0.306885;0.951660
5.365365;-0.058594;0.320557;0.952637
5.365602;-0.053955;0.318115;0.957031
5.365832;-0.048828;0.329834;0.960205
5.455350;-0.047607;0.333008;0.956299
5.455636;-0.051514;0.318848;0.947754
5.455877;-0.053467;0.323242;0.955811
5.456107;-0.051514;0.330078;0.955078
5.995657;-0.053711;0.316406;0.946045
5.996242;-0.058594;0.320801;0.953125
5.996484;-0.055664;0.314697;0.952637
5.996717;-0.051758;0.326172;0.953369
5.998500;-0.053711;0.314453;0.953613
5.998735;-0.056885;0.313232;0.953125
5.998963;-0.054932;0.309814;0.953125
5.999189;-0.056152;0.314453;0.956787
6.084820;-0.057129;0.309082;0.951904
6.085107;-0.060547;0.310303;0.953125
6.085349;-0.054443;0.312500;0.955811
6.085577;-0.056885;0.309570;0.955322
6.175354;-0.057373;0.308838;0.955078
6.175653;-0.053467;0.314941;0.955322
6.176013;-0.054199;0.312256;0.955322
6.176250;-0.057129;0.312256;0.954346
6.178403;-0.053955;0.312256;0.953369
6.178638;-0.058594;0.312500;0.956543
6.178863;-0.054932;0.310791;0.954346
6.179087;-0.057861;0.311523;0.953125
6.265713;-0.055908;0.310547;0.957275
6.266008;-0.055420;0.312744;0.956543
6.266249;-0.056152;0.308838;0.954590
6.266479;-0.056152;0.310303;0.955811
6.355235;-0.055908;0.309814;0.956299
6.355520;-0.056152;0.308350;0.954102
6.355760;-0.056885;0.312500;0.956299
6.355990;-0.055664;0.310303;0.956055
6.445384;-0.058105;0.307373;0.957520
6.445675;-0.058350;0.303711;0.954834
6.445915;-0.058350;0.307129;0.953125
6.446142;-0.058105;0.312012;0.958740
6.985380;-0.055908;0.305908;0.956543
6.985674;-0.058594;0.310059;0.955566
6.985913;-0.057617;0.306152;0.959473
6.986143;-0.056396;0.306885;0.954834
7.075004;-0.057617;0.307861;0.958008
7.075332;-0.056885;0.306641;0.958496
7.075572;-0.057617;0.304688;0.954346
7.075803;-0.058105;0.308594;0.958740
7.076285;-0.056885;0.304443;0.956787
7.076515;-0.060547;0.305664;0.957764
7.076825;-0.058350;0.306152;0.958496
7.077050;-0.058350;0.305908;0.956543
7.169598;-0.059082;0.308105;0.960449
7.169820;-0.057129;0.303223;0.954834
7.170056;-0.058594;0.302246;0.957031
7.170285;-0.057373;0.310059;0.957764
7.172106;-0.056396;0.302490;0.954102
7.172337;-0.059326;0.304199;0.955566
7.172562;-0.056641;0.304443;0.958496
7.172785;-0.058594;0.302246;0.953857
7.259591;-0.058838;0.302734;0.957764
7.259861;-0.056641;0.303223;0.952393
7.262699;-0.059326;0.309082;0.959961
7.262944;-0.055664;0.302246;0.960449
7.345190;-0.058838;0.303711;0.954590
7.345485;-0.057129;0.305176;0.957764
7.345723;-0.057861;0.307129;0.960693
7.345951;-0.057617;0.300293;0.955566
7.525029;-0.057373;0.309814;0.950684
7.525309;-0.059326;0.307129;0.960205
7.525549;-0.055176;0.306152;0.956787
7.525777;-0.057129;0.305176;0.952637
7.615101;-0.060303;0.306152;0.959473
7.615383;-0.054932;0.306885;0.955811
7.615621;-0.057373;0.305908;0.955078
7.615850;-0.058838;0.307373;0.959717
7.706350;-0.058105;0.302979;0.956787
7.706606;-0.058350;0.304443;0.954590
7.706840;-0.056885;0.307861;0.956543
7.707069;-0.060059;0.307861;0.958252
8.245352;-0.058838;0.306152;0.956787
8.245660;-0.057617;0.306885;0.959229
8.245996;-0.055908;0.309814;0.956299
8.246232;-0.058838;0.302002;0.954590
8.334885;-0.057617;0.304688;0.957520
8.335204;-0.054688;0.309082;0.953613
8.335442;-0.056641;0.306641;0.963379
8.335673;-0.055908;0.303955;0.958496
8.424986;-0.057861;0.308838;0.957031
8.425419;-0.055664;0.308350;0.954834
8.425660;-0.055176;0.311035;0.953125
8.425900;-0.054688;0.308105;0.954346
8.426388;-0.061279;0.305908;0.959717
8.426626;-0.058838;0.308594;0.957275
8.426924;-0.055176;0.310059;0.955566
8.427151;-0.055908;0.307129;0.954346
8.515559;-0.058838;0.307373;0.957275
8.515845;-0.057129;0.310303;0.957275
8.516212;-0.057129;0.307129;0.957275
8.516441;-0.056885;0.309814;0.957031
8.518028;-0.056641;0.308350;0.957031
8.518266;-0.055908;0.308350;0.953857
8.518495;-0.057373;0.309570;0.956543
8.518720;-0.056396;0.305664;0.956055
8.605038;-0.058838;0.309082;0.959961
8.605320;-0.061768;0.306885;0.959961
8.605556;-0.057129;0.302979;0.953857
8.605784;-0.059326;0.307861;0.959717
8.785313;-0.055420;0.307129;0.954834
8.785609;-0.059570;0.305908;0.958008
8.785847;-0.056152;0.304932;0.961426
8.786076;-0.055664;0.308105;0.956787
8.875910;-0.058105;0.304199;0.954834
8.876166;-0.057617;0.309326;0.957275
8.876399;-0.056885;0.304688;0.955322
8.876626;-0.058594;0.304688;0.958984
8.965135;-0.058350;0.302490;0.956055
8.965441;-0.059570;0.306641;0.959473
8.965679;-0.057617;0.304199;0.957275
8.965905;-0.058105;0.304443;0.954102
9.149288;-0.056641;0.303955;0.955566
9.149572;-0.056885;0.304688;0.958740
9.149819;-0.058350;0.304199;0.953857
9.150051;-0.058594;0.305908;0.956543
9.235503;-0.059082;0.305908;0.958496
9.235789;-0.058350;0.306396;0.958008
9.236035;-0.056885;0.302490;0.956299
9.236285;-0.057617;0.304443;0.956543
9.775361;-0.058594;0.304688;0.958008
9.775889;-0.055908;0.301270;0.955566
9.776134;-0.060791;0.304688;0.958008
9.776364;-0.057617;0.299316;0.957275
9.787294;-0.059326;0.304932;0.958740
9.787546;-0.058838;0.298096;0.958252
9.787777;-0.059082;0.303711;0.953613
9.788005;-0.061279;0.304443;0.959473
9.865629;-0.058105;0.303223;0.956055
9.866069;-0.058350;0.301514;0.956299
9.866310;-0.058594;0.303223;0.959717
9.866964;-0.057617;0.303711;0.956543
9.868225;-0.059326;0.303711;0.958984
9.868458;-0.058838;0.299561;0.959229
9.868683;-0.057129;0.301025;0.955811
9.868905;-0.059570;0.305176;0.959229
9.955019;-0.059570;0.306396;0.961182
9.955299;-0.056152;0.297852;0.954834
9.955655;-0.058594;0.302979;0.958984
9.955886;-0.059570;0.304443;0.957031
10.045418;-0.058594;0.302246;0.956299
10.045702;-0.058594;0.302734;0.956543
10.045938;-0.059814;0.303467;0.958496
10.046167;-0.057617;0.301025;0.957275
10.135177;-0.057373;0.304443;0.955811
10.135458;-0.059814;0.299316;0.963135
10.135693;-0.055176;0.304443;0.953857
10.135918;-0.059814;0.306396;0.961670
10.230576;-0.058594;0.298584;0.963623
10.230846;-0.061279;0.303711;0.953125
10.231085;-0.059814;0.305176;0.958496
10.231315;-0.059570;0.303223;0.957031
10.765196;-0.058838;0.303711;0.957275
10.765484;-0.060303;0.300537;0.960205
10.765721;-0.057861;0.298828;0.955811
10.766390;-0.060547;0.302490;0.960693
10.854528;-0.058594;0.301514;0.956299
10.854961;-0.060059;0.302002;0.955811
10.855196;-0.058350;0.304932;0.958984
10.855423;-0.059570;0.304932;0.959229
10.856371;-0.057373;0.302490;0.956299
10.856606;-0.059570;0.304443;0.957520
10.856829;-0.059082;0.302246;0.956055
10.857054;-0.059082;0.305908;0.958496
10.946943;-0.061523;0.303467;0.957520
10.947221;-0.059570;0.302490;0.955811
10.947455;-0.058350;0.303467;0.957031
10.947682;-0.057129;0.305176;0.959961
10.948774;-0.057373;0.300293;0.956787
10.949003;-0.062256;0.304688;0.958984
10.949226;-0.057129;0.302490;0.954102
10.949449;-0.060303;0.305176;0.959717
11.043085;-0.056885;0.301270;0.958252
11.043327;-0.058105;0.302979;0.955566
11.044063;-0.060059;0.305176;0.959229
11.044391;-0.056152;0.305420;0.955811
11.125253;-0.057617;0.300049;0.956787
11.125560;-0.060791;0.307861;0.959961
11.125798;-0.058350;0.303467;0.955322
11.126086;-0.059082;0.303711;0.957764
11.666721;-0.057373;0.302490;0.955811
11.666977;-0.058105;0.310059;0.956299
11.667211;-0.059082;0.305176;0.958252
11.667440;-0.057129;0.306885;0.956543
11.667868;-0.058350;0.305664;0.957275
11.668103;-0.059570;0.304199;0.957275
11.668328;-0.060303;0.307129;0.959961
11.668554;-0.059082;0.305664;0.957031
11.755437;-0.056641;0.304688;0.956543
11.755996;-0.058350;0.306885;0.959717
11.756248;-0.059082;0.307129;0.958984
11.756598;-0.056641;0.304199;0.954590
11.766147;-0.059570;0.309326;0.958252
11.766924;-0.058105;0.304199;0.955811
11.767173;-0.059814;0.307373;0.958252
11.767488;-0.054688;0.305908;0.962646
11.845584;-0.056641;0.306396;0.956055
11.845885;-0.060791;0.305176;0.957275
11.846123;-0.059326;0.308838;0.959961
11.846352;-0.054443;0.305420;0.954834
11.935082;-0.057861;0.306885;0.961182
11.935367;-0.059326;0.303467;0.957275
11.935603;-0.058350;0.308594;0.957275
11.935830;-0.056885;0.301514;0.956543
12.024974;-0.057861;0.303711;0.957031
12.025272;-0.058838;0.306152;0.959717
12.025508;-0.058105;0.307617;0.959229
12.025736;-0.058350;0.304199;0.956543
12.115140;-0.058838;0.302490;0.955322
12.115421;-0.058838;0.306152;0.960693
12.115660;-0.057861;0.303223;0.955322
12.115886;-0.058105;0.303711;0.956543
12.657134;-0.059570;0.303467;0.956299
12.657389;-0.059326;0.304932;0.957520
12.657624;-0.059326;0.304688;0.957520
12.657851;-0.059326;0.300781;0.957764
12.666387;-0.059814;0.303467;0.956543
12.666582;-0.056885;0.300781;0.957520
12.667147;-0.059570;0.301758;0.959229
12.667390;-0.057861;0.301025;0.958496
12.747001;-0.058350;0.306641;0.957520
12.747258;-0.059082;0.302002;0.959961
12.747494;-0.057861;0.304199;0.955078
12.747723;-0.057373;0.301514;0.957275
12.748766;-0.061523;0.302490;0.959473
12.748995;-0.059326;0.302490;0.956299
12.749222;-0.060059;0.304199;0.957031
12.749447;-0.058838;0.298584;0.957031
12.835406;-0.060303;0.302246;0.958252
12.835692;-0.058594;0.302734;0.958740
12.835966;-0.060303;0.301758;0.957520
12.836195;-0.059082;0.303467;0.957764
12.924998;-0.059570;0.297607;0.957764
12.925427;-0.058105;0.302979;0.957031
12.925666;-0.060547;0.301270;0.957275
12.925895;-0.063232;0.300049;0.958984
13.015504;-0.060547;0.298340;0.959229
13.015791;-0.059814;0.302002;0.958496
13.016030;-0.059570;0.300781;0.959229
13.016257;-0.059814;0.300537;0.958008
13.195348;-0.059326;0.298828;0.961182
13.195653;-0.062012;0.298828;0.959717
13.195890;-0.060059;0.300537;0.960938
13.196119;-0.056641;0.297852;0.960938
13.286286;-0.062012;0.298340;0.958740
13.286540;-0.061035;0.298584;0.959717
13.286777;-0.060547;0.299561;0.958984
13.287004;-0.059082;0.296631;0.958740
13.375103;-0.061279;0.298096;0.959473
13.375387;-0.058350;0.299316;0.960938
13.375624;-0.061279;0.298340;0.959473
13.375852;-0.059570;0.295410;0.958008
13.555473;-0.059082;0.296631;0.958740
13.555809;-0.057617;0.298340;0.961182
13.556052;-0.060791;0.298340;0.961426
13.556282;-0.059570;0.297119;0.958496
13.645846;-0.059570;0.298340;0.959717
13.646097;-0.060303;0.295654;0.959473
13.646328;-0.061035;0.297607;0.959229
13.646558;-0.060547;0.299805;0.961182
14.185811;-0.059814;0.296387;0.958984
14.186107;-0.062012;0.298828;0.959961
14.186345;-0.059814;0.296631;0.956543
14.186575;-0.059570;0.298340;0.962402
14.275028;-0.061035;0.299561;0.959961
14.275468;-0.059082;0.296143;0.955811
14.275711;-0.060791;0.297607;0.961914
14.275942;-0.057617;0.296631;0.958496
14.364925;-0.059814;0.299316;0.962646
14.365316;-0.058350;0.293457;0.961182
14.365556;-0.059570;0.297363;0.959717
14.365783;-0.059814;0.297852;0.961182
14.455606;-0.060547;0.297119;0.957031
14.456085;-0.059814;0.294678;0.959717
14.456457;-0.060059;0.297607;0.961426
14.456695;-0.060059;0.296143;0.958008
14.457904;-0.060791;0.298096;0.960205
14.458134;-0.059814;0.291992;0.961670
14.458360;-0.058838;0.296387;0.956055
14.458585;-0.058105;0.298828;0.963135
14.459346;-0.058105;0.300049;0.961670
14.459574;-0.059082;0.295410;0.955566
14.459800;-0.060547;0.295410;0.958740
14.460025;-0.059570;0.300781;0.960449
14.546198;-0.058105;0.297363;0.958740
14.546593;-0.059326;0.297363;0.958496
14.546831;-0.060791;0.295654;0.958252
14.547060;-0.061035;0.299805;0.959717
14.646623;-0.059814;0.296631;0.958252
14.646878;-0.059082;0.296875;0.956543
14.647114;-0.060059;0.298828;0.960205
14.647340;-0.059326;0.299316;0.960693
15.175154;-0.059814;0.298340;0.958252
15.175573;-0.059326;0.297607;0.961670
15.175814;-0.060303;0.298096;0.959473
15.176504;-0.057129;0.295166;0.956299
15.178084;-0.056885;0.296631;0.963379
15.178491;-0.059326;0.298584;0.960205
15.178719;-0.060547;0.300049;0.958008
15.178945;-0.058594;0.300537;0.960449
15.355342;-0.057129;0.304199;0.958740
15.355636;-0.059814;0.294678;0.956055
15.356012;-0.060059;0.300293;0.961182
15.356242;-0.058105;0.300049;0.957764
15.357549;-0.059570;0.300049;0.960449
15.357809;-0.059814;0.297363;0.958008
15.358039;-0.059082;0.299805;0.961426
15.358266;-0.061035;0.302490;0.959229
15.453146;-0.059814;0.301270;0.958496
15.453449;-0.059570;0.299805;0.957520
15.453689;-0.059814;0.300537;0.959229
15.453917;-0.060791;0.298828;0.958496
15.454350;-0.058838;0.301270;0.959473
15.454579;-0.059570;0.299561;0.958252
15.454807;-0.059570;0.297852;0.960938
15.455033;-0.059814;0.300781;0.959717
15.535379;-0.059570;0.301270;0.959717
15.535599;-0.060303;0.297363;0.957520
15.535968;-0.060303;0.299316;0.959717
15.536164;-0.061035;0.301270;0.959717
15.715195;-0.060547;0.299805;0.958008
15.715426;-0.059570;0.296387;0.958984
15.715614;-0.061279;0.300781;0.958008
15.715916;-0.058838;0.297852;0.959229
15.804990;-0.060303;0.297119;0.961914
15.805357;-0.055176;0.298340;0.961914
15.805512;-0.061279;0.296631;0.958984
15.805883;-0.060791;0.299072;0.960205
16.345436;-0.058105;0.297607;0.956787
16.345760;-0.060303;0.295654;0.959229
16.346453;-0.060547;0.299561;0.961426
16.346689;-0.060547;0.297119;0.958252
16.348232;-0.059814;0.295654;0.958252
16.348467;-0.058105;0.296387;0.957764
16.348690;-0.061279;0.298828;0.958740
16.348913;-0.059814;0.297607;0.960205
16.435169;-0.061279;0.297607;0.959229
16.435453;-0.059082;0.297363;0.958984
16.435690;-0.061523;0.295166;0.958008
16.435919;-0.059082;0.296631;0.958008
16.529367;-0.057617;0.298096;0.963135
16.529615;-0.060547;0.296143;0.957031
16.529846;-0.060303;0.295898;0.958740
16.530073;-0.060059;0.296143;0.960205
16.624842;-0.060303;0.297119;0.958984
16.625088;-0.059814;0.294189;0.957275
16.625414;-0.060547;0.295166;0.961670
16.625645;-0.059570;0.295410;0.958008
16.627094;-0.059570;0.295410;0.960205
16.627327;-0.059570;0.296143;0.956299
16.627552;-0.060547;0.295166;0.958252
16.627777;-0.062500;0.293213;0.958496
16.706106;-0.058838;0.294434;0.958008
16.706356;-0.059814;0.295654;0.964355
16.706589;-0.059326;0.294922;0.956543
16.706816;-0.061523;0.295654;0.959229
16.795427;-0.061035;0.295898;0.958496
16.795713;-0.060059;0.295654;0.957031
16.795946;-0.059082;0.292969;0.961914
16.796175;-0.060059;0.295410;0.958740
17.335239;-0.060547;0.295166;0.960205
17.335649;-0.062256;0.294678;0.959717
17.336014;-0.059570;0.292236;0.959229
17.336243;-0.061279;0.294922;0.958740
17.424786;-0.059570;0.295410;0.958008
17.425081;-0.057617;0.294678;0.960938
17.425320;-0.060547;0.295410;0.957764
17.425550;-0.060059;0.292480;0.961426
17.426353;-0.060547;0.296143;0.960205
17.426676;-0.061768;0.295898;0.958740
17.426901;-0.061279;0.293457;0.960205
17.427124;-0.059570;0.293457;0.960205
17.525364;-0.060303;0.294678;0.959961
17.525597;-0.060303;0.293701;0.959229
17.525679;-0.060791;0.294434;0.958740
17.525879;-0.061768;0.293945;0.958496
17.604956;-0.061279;0.294189;0.960205
17.605680;-0.060547;0.294434;0.960693
17.605927;-0.058838;0.294189;0.958008
17.606155;-0.062500;0.292236;0.960938
17.606672;-0.061035;0.293945;0.957764
17.606903;-0.061279;0.295410;0.958008
17.607128;-0.061279;0.291992;0.965332
17.607351;-0.062500;0.295410;0.957520
17.695282;-0.062744;0.292969;0.960449
17.695564;-0.059814;0.294678;0.959473
17.695801;-0.058594;0.293457;0.959229
17.696028;-0.059814;0.292969;0.962402
18.235277;-0.061279;0.295166;0.960205
18.235634;-0.059814;0.295410;0.957764
18.235992;-0.061279;0.295166;0.961426
18.236227;-0.060059;0.291748;0.958496
18.324970;-0.059082;0.296387;0.959473
18.325409;-0.059570;0.295654;0.960205
18.325651;-0.061035;0.294189;0.959229
18.325876;-0.057373;0.295898;0.961914
18.327457;-0.061035;0.291748;0.959961
18.327713;-0.061523;0.295410;0.958984
18.327942;-0.059814;0.295654;0.958984
18.328232;-0.059570;0.295410;0.956543
18.423538;-0.060547;0.296143;0.959473
18.424477;-0.058594;0.294189;0.957520
18.424812;-0.059082;0.295166;0.958496
18.425110;-0.060547;0.297363;0.959229
18.427538;-0.060303;0.295166;0.957764
18.427767;-0.060791;0.295410;0.957520
18.427992;-0.057861;0.297607;0.961426
18.428394;-0.060791;0.295654;0.958008
18.506109;-0.058350;0.293701;0.957764
18.506357;-0.062012;0.298828;0.960938
18.506588;-0.057617;0.296875;0.956787
18.506966;-0.061768;0.297852;0.961182
18.595306;-0.060791;0.294678;0.960938
18.595596;-0.060303;0.297852;0.958496
18.595833;-0.059570;0.298828;0.961914
18.596060;-0.059326;0.298340;0.959961
18.685253;-0.058838;0.295654;0.958740
18.685556;-0.059082;0.296143;0.960693
18.685793;-0.059082;0.295898;0.956787
18.686020;-0.061523;0.299072;0.961182
19.226498;-0.058105;0.296631;0.958984
19.226748;-0.059814;0.299072;0.958008
19.226980;-0.059570;0.298584;0.963623
19.227207;-0.058594;0.296387;0.958496
19.314829;-0.059570;0.299805;0.960449
19.315256;-0.062988;0.293701;0.959717
19.315498;-0.059570;0.294922;0.957275
19.315725;-0.059570;0.299316;0.961670
19.317369;-0.058838;0.294678;0.957520
19.317602;-0.060547;0.294678;0.958008
19.317825;-0.060059;0.297363;0.960449
19.318048;-0.060791;0.295410;0.957764
19.407412;-0.059814;0.295166;0.958008
19.407682;-0.060547;0.295898;0.959717
19.407919;-0.060303;0.295898;0.959717
19.408148;-0.060303;0.295410;0.958008
19.409801;-0.061035;0.292969;0.960693
19.410032;-0.061523;0.291260;0.959473
19.410261;-0.060059;0.295654;0.958252
19.410723;-0.061035;0.293213;0.961914
19.495308;-0.060791;0.293701;0.959473
19.495607;-0.062012;0.292969;0.959473
19.496243;-0.061035;0.294189;0.960693
19.496473;-0.061523;0.293213;0.958740
19.585600;-0.062256;0.294434;0.959473
19.585897;-0.059570;0.291992;0.963135
19.586134;-0.061768;0.291992;0.960693
19.586403;-0.062012;0.294678;0.960449
20.125303;-0.058350;0.292236;0.963135
20.125629;-0.061523;0.291748;0.961426
20.125866;-0.059570;0.294922;0.959229
20.126219;-0.061035;0.293457;0.958740
20.214521;-0.057373;0.291748;0.962158
20.214947;-0.061523;0.291748;0.960205
20.215185;-0.061523;0.294189;0.959229
20.215416;-0.060059;0.293457;0.960693
20.216211;-0.061523;0.292969;0.958496
20.216442;-0.061279;0.295898;0.959961
20.216667;-0.061523;0.289551;0.961426
20.216892;-0.057129;0.297363;0.958984
20.313753;-0.066650;0.285400;0.962891
20.314045;-0.057373;0.298828;0.958252
20.314287;-0.060303;0.293701;0.963867
20.314520;-0.061279;0.290527;0.958008
20.395397;-0.059326;0.297607;0.964111
20.395695;-0.059814;0.290039;0.960938
20.396021;-0.062500;0.280029;0.959717
20.396254;-0.061035;0.296875;0.959961
20.396744;-0.062012;0.290039;0.964355
20.396975;-0.066162;0.282227;0.958740
20.397200;-0.058350;0.301758;0.957764
20.397423;-0.063477;0.294922;0.958252
20.485161;-0.061768;0.289307;0.967529
20.485449;-0.062744;0.287109;0.957031
20.485683;-0.061035;0.297363;0.962158
20.485910;-0.061035;0.293945;0.960693
20.575127;-0.059326;0.285889;0.959229
20.575411;-0.060791;0.292236;0.959717
20.575645;-0.064941;0.288086;0.961670
20.575871;-0.058838;0.289307;0.961670
20.755289;-0.059326;0.290771;0.963379
20.755589;-0.063477;0.281982;0.959717
20.755825;-0.063232;0.290527;0.966797
20.756050;-0.060059;0.293457;0.962891
20.846422;-0.061035;0.291504;0.964600
20.846676;-0.065674;0.287354;0.958252
20.846910;-0.063477;0.287598;0.954102
20.847137;-0.065186;0.273438;0.959229
21.025686;-0.059814;0.300781;0.966309
21.025982;-0.063721;0.302246;0.957764
21.026220;-0.061279;0.289795;0.961426
21.026447;-0.059814;0.281250;0.962891
21.115244;-0.059570;0.292725;0.958008
21.115538;-0.063965;0.292236;0.961426
21.115772;-0.060059;0.289551;0.962158
21.115997;-0.059570;0.282959;0.962646
21.206150;-0.066650;0.281738;0.964600
21.206547;-0.060303;0.285400;0.961670
21.206783;-0.062988;0.287354;0.965576
21.207012;-0.064941;0.283203;0.961182
21.745569;-0.064941;0.274658;0.963623
21.745863;-0.064209;0.282227;0.965576
21.746225;-0.062500;0.287842;0.963623
21.746454;-0.060791;0.280762;0.961426
21.834667;-0.062256;0.272217;0.959961
21.834948;-0.062256;0.283936;0.966797
21.835310;-0.060791;0.286865;0.962646
21.835541;-0.062744;0.289062;0.961914
21.836468;-0.062988;0.279297;0.960205
21.836718;-0.062012;0.279053;0.964600
21.836945;-0.067627;0.290771;0.966309
21.837168;-0.065918;0.288574;0.962402
21.924578;-0.065430;0.284668;0.961182
21.924896;-0.063965;0.283936;0.959961
21.925133;-0.069824;0.286865;0.962646
21.925480;-0.062500;0.294189;0.961182
21.938236;-0.065918;0.279297;0.958740
21.938490;-0.065430;0.282715;0.969482
21.938723;-0.065674;0.287842;0.957520
21.938950;-0.064941;0.275146;0.958008
22.015629;-0.067871;0.277100;0.968506
22.015947;-0.064697;0.287109;0.960205
22.016182;-0.065918;0.283447;0.961182
22.016409;-0.069580;0.277100;0.966064
22.105310;-0.065430;0.288330;0.962891
22.105595;-0.065430;0.288574;0.962158
22.105829;-0.062744;0.287842;0.964844
22.106054;-0.066650;0.280762;0.959473
22.288975;-0.065674;0.282227;0.962891
22.289246;-0.064697;0.281982;0.961670
22.289482;-0.067627;0.284912;0.965088
22.289713;-0.065430;0.278320;0.961426
22.375483;-0.064209;0.272217;0.958008
22.376024;-0.061523;0.287354;0.965088
22.376457;-0.065918;0.288574;0.959473
22.377186;-0.063232;0.282227;0.964111
22.465284;-0.066895;0.285889;0.961426
22.465567;-0.064941;0.288086;0.961182
22.465801;-0.059814;0.284912;0.963135
22.466028;-0.061279;0.290283;0.964844
23.006147;-0.062744;0.292969;0.965332
23.006395;-0.067383;0.291992;0.965576
23.006626;-0.066406;0.281738;0.956543
23.006851;-0.063965;0.281006;0.961670
23.103100;-0.063232;0.284180;0.965088
23.103390;-0.065186;0.288330;0.962402
23.103628;-0.062744;0.284668;0.957031
23.103861;-0.067627;0.280518;0.964844
23.107800;-0.064697;0.277100;0.962402
23.108053;-0.061035;0.278809;0.956787
23.108278;-0.067383;0.279297;0.962646
23.108503;-0.060303;0.287842;0.960693
23.187117;-0.065918;0.290527;0.965820
23.187426;-0.065918;0.276855;0.957031
23.187662;-0.064453;0.281006;0.964600
23.187891;-0.063477;0.295654;0.965576
23.189171;-0.059082;0.297119;0.965820
23.189402;-0.060303;0.287598;0.960938
23.189627;-0.065430;0.287109;0.962646
23.189850;-0.064941;0.281250;0.958252
23.275343;-0.062988;0.281250;0.960205
23.275661;-0.064453;0.286865;0.966309
23.276037;-0.061768;0.292969;0.961426
23.276264;-0.063477;0.287109;0.959229
23.365070;-0.062256;0.281982;0.961426
23.365355;-0.065430;0.280762;0.961182
23.365587;-0.060547;0.296875;0.963135
23.365812;-0.064941;0.290527;0.962646
23.545429;-0.060791;0.281494;0.960693
23.545778;-0.063232;0.292725;0.966309
23.546017;-0.061279;0.290527;0.960205
23.546244;-0.064697;0.287354;0.959473
23.636192;-0.065918;0.282227;0.962402
23.636442;-0.059814;0.276367;0.953369
23.636675;-0.060303;0.298828;0.971680
23.636902;-0.070801;0.287598;0.955566
23.725159;-0.055664;0.265381;0.955811
23.725443;-0.057373;0.295410;0.975098
23.725677;-0.068115;0.304199;0.954102
23.725903;-0.061279;0.276611;0.953125
23.905207;-0.062500;0.287354;0.968750
23.905497;-0.062256;0.295654;0.958984
23.905733;-0.054443;0.286865;0.954834
23.905960;-0.063232;0.292725;0.972412
23.996965;-0.062988;0.292725;0.952881
23.997372;-0.054688;0.279785;0.949951
23.997606;-0.069580;0.296631;0.979248
23.997833;-0.057129;0.278320;0.940918
24.536322;-0.056396;0.295898;0.967773
24.536646;-0.068848;0.298096;0.968506
24.536884;-0.055664;0.290771;0.960449
24.537228;-0.068359;0.312012;0.971680
24.538488;-0.062012;0.279297;0.941650
24.538721;-0.051758;0.278809;0.966309
24.538946;-0.073975;0.303223;0.968262
24.539167;-0.063721;0.305908;0.956055
24.625029;-0.058350;0.278809;0.958496
24.625443;-0.064453;0.284668;0.964111
24.625814;-0.064941;0.293213;0.961182
24.626078;-0.054932;0.300293;0.961426
24.636431;-0.056885;0.286377;0.958740
24.636776;-0.058105;0.281006;0.958740
24.637016;-0.059326;0.298828;0.963135
24.637398;-0.062256;0.295166;0.960205
24.715309;-0.060547;0.285156;0.957520
24.715605;-0.058594;0.287354;0.960205
24.715841;-0.061035;0.298340;0.960693
24.716066;-0.058350;0.303711;0.958740
24.805531;-0.065186;0.294434;0.957520
24.805811;-0.063965;0.292236;0.956787
24.806046;-0.059082;0.286865;0.958984
24.806273;-0.065674;0.296875;0.961914
24.895151;-0.059814;0.298828;0.957275
24.895441;-0.060303;0.287598;0.958008
24.895741;-0.064453;0.283936;0.960693
24.895969;-0.061279;0.299316;0.960693
24.986156;-0.063965;0.298340;0.961182
24.986404;-0.063965;0.289062;0.964355
24.986633;-0.061035;0.289795;0.960205
24.986860;-0.061035;0.290039;0.962158
25.525501;-0.062744;0.297852;0.962646
25.525805;-0.059570;0.291992;0.963623
25.526503;-0.058594;0.289795;0.961426
25.526739;-0.061279;0.294189;0.960693
25.528357;-0.058594;0.290527;0.959717
25.528589;-0.058594;0.287842;0.958740
25.528814;-0.061523;0.295166;0.959717
25.529039;-0.060059;0.290771;0.962402
25.623877;-0.058350;0.289795;0.962891
25.624224;-0.061279;0.295898;0.962646
25.624464;-0.062256;0.288574;0.960205
25.624695;-0.061768;0.289551;0.962646
25.706762;-0.058105;0.288086;0.961914
25.707014;-0.061768;0.289307;0.956299
25.707247;-0.062256;0.291504;0.962891
25.707472;-0.062256;0.289795;0.961182
25.708950;-0.059082;0.285400;0.958496
25.709179;-0.062256;0.291260;0.964111
25.709406;-0.064453;0.295166;0.963135
25.709627;-0.062988;0.291992;0.958252
25.795511;-0.061523;0.290771;0.963623
25.795864;-0.062744;0.289551;0.958496
25.796103;-0.060547;0.290039;0.962402
25.796328;-0.062256;0.284668;0.960693
25.885172;-0.061768;0.290527;0.963867
25.885454;-0.060547;0.291992;0.961670
25.885691;-0.061523;0.292725;0.960449
25.885914;-0.064941;0.287842;0.958252
26.065182;-0.062256;0.284424;0.958252
26.065477;-0.061035;0.288574;0.960938
26.065710;-0.060059;0.284424;0.954346
26.065935;-0.066162;0.298584;0.962402
26.155380;-0.073242;0.289062;0.958984
26.155659;-0.052246;0.298340;0.964355
26.156031;-0.062988;0.287109;0.960449
26.156256;-0.060791;0.288330;0.959961
26.246220;-0.061279;0.286865;0.960693
26.246471;-0.064453;0.287354;0.962646
26.246704;-0.060547;0.290771;0.962158
26.246929;-0.062500;0.284912;0.964844
26.786947;-0.059082;0.290527;0.962891
26.787195;-0.062988;0.293701;0.958252
26.787426;-0.061768;0.287598;0.962646
26.787683;-0.060303;0.290039;0.962891
26.788536;-0.063232;0.287598;0.958984
26.788765;-0.060059;0.287598;0.958984
26.788990;-0.062012;0.287842;0.962158
26.789211;-0.064697;0.286621;0.962402
26.876432;-0.062988;0.282959;0.959961
26.876823;-0.062012;0.291260;0.960938
26.877180;-0.067139;0.293213;0.964600
26.877420;-0.058594;0.280762;0.957764
26.877895;-0.055908;0.284668;0.955078
26.878126;-0.066650;0.291992;0.961426
26.878349;-0.063721;0.288574;0.958496
26.878574;-0.061768;0.299316;0.962891
26.965912;-0.059326;0.296143;0.961182
26.966213;-0.059814;0.292969;0.962646
26.966522;-0.059814;0.297363;0.962158
26.966763;-0.061279;0.301514;0.958984
27.055338;-0.062744;0.291748;0.960693
27.055798;-0.063721;0.288086;0.958984
27.056032;-0.063965;0.286621;0.957520
27.056259;-0.058594;0.291992;0.962402
27.145163;-0.061523;0.296387;0.958496
27.145443;-0.064941;0.295410;0.959961
27.145678;-0.062012;0.291748;0.957520
27.145903;-0.061035;0.282959;0.960449
27.325369;-0.062012;0.292725;0.966064
27.325676;-0.060791;0.302246;0.957031
27.325911;-0.064209;0.291016;0.959961
27.326139;-0.060059;0.291992;0.964355
27.415932;-0.060547;0.298828;0.959961
27.416182;-0.060303;0.294189;0.954102
27.416412;-0.063965;0.297607;0.963135
27.416639;-0.063477;0.294922;0.958984
27.505423;-0.061523;0.298340;0.959229
27.505722;-0.062744;0.294922;0.958496
27.505955;-0.058105;0.300537;0.962891
27.506182;-0.061279;0.307617;0.963623
27.685406;-0.062500;0.299805;0.954834
27.685699;-0.061279;0.294189;0.956543
27.685936;-0.061035;0.294922;0.955078
27.686161;-0.063965;0.301758;0.959717
27.776493;-0.046875;0.307617;0.997803
27.776749;-0.064453;0.251465;0.912109
27.776978;-0.084961;0.298340;0.958740
27.777349;-0.054932;0.297607;0.962891
27.955645;-0.068115;0.301758;0.957764
27.955961;-0.059326;0.298340;0.964600
27.956198;-0.061279;0.300293;0.961426
27.956427;-0.063721;0.295166;0.958496
28.045210;-0.064453;0.298828;0.959229
28.045492;-0.063232;0.286621;0.956055
28.045725;-0.062988;0.294434;0.959473
28.045952;-0.062988;0.293701;0.958252
28.135662;-0.060303;0.304688;0.962158
28.136028;-0.064941;0.291504;0.961670
28.136265;-0.062744;0.295410;0.959961
28.136490;-0.061523;0.294678;0.959229
28.315233;-0.062256;0.297607;0.960205
28.315514;-0.062988;0.296387;0.957764
28.315748;-0.064209;0.297607;0.963379
28.315975;-0.064941;0.294189;0.959961
28.405878;-0.064453;0.291260;0.958252
28.406145;-0.059570;0.296143;0.960938
28.406376;-0.062012;0.298828;0.961426
28.406601;-0.064209;0.293213;0.958740
28.946512;-0.061035;0.291504;0.960693
28.946941;-0.063477;0.296875;0.961182
28.947182;-0.064209;0.287109;0.957031
28.947409;-0.062500;0.290771;0.961670
28.948679;-0.062012;0.300049;0.965088
28.948910;-0.064209;0.288818;0.958740
28.949137;-0.061523;0.291992;0.964355
28.949358;-0.065918;0.294434;0.958252
29.037552;-0.063477;0.292236;0.960693
29.037806;-0.062256;0.292969;0.959717
29.038040;-0.064453;0.289551;0.957031
29.038263;-0.065674;0.287354;0.957275
29.038668;-0.059326;0.293945;0.961914
29.038895;-0.062988;0.291992;0.960938
29.039118;-0.061768;0.290039;0.963135
29.039339;-0.063965;0.293457;0.960205
29.125216;-0.065430;0.292969;0.961426
29.125500;-0.064453;0.291504;0.961182
29.125736;-0.062256;0.283203;0.955811
29.125959;-0.062744;0.293457;0.963867
29.215454;-0.065918;0.289551;0.960449
29.215738;-0.066406;0.289062;0.956543
29.215975;-0.066406;0.281738;0.957764
29.216202;-0.062988;0.291992;0.961914
29.305321;-0.063232;0.297607;0.958496
29.305595;-0.065918;0.292969;0.959229
29.305832;-0.063721;0.288086;0.960693
29.306059;-0.059814;0.301270;0.958496
29.396227;-0.059326;0.305176;0.964355
29.396555;-0.060059;0.298584;0.963135
29.396788;-0.063721;0.298340;0.960938
29.397015;-0.061523;0.294678;0.957031
29.935463;-0.061523;0.298096;0.961182
29.935757;-0.066162;0.293945;0.958984
29.935995;-0.061523;0.289062;0.961182
29.936220;-0.060791;0.296387;0.958740
30.025343;-0.060791;0.306152;0.962402
30.025648;-0.062988;0.297119;0.958984
30.025887;-0.062500;0.293945;0.958496
30.026234;-0.062988;0.298584;0.958496
30.115028;-0.062744;0.298096;0.959961
30.115808;-0.063477;0.295898;0.959717
30.116051;-0.060059;0.296875;0.956543
30.116392;-0.060303;0.302490;0.959717
30.116911;-0.060059;0.302002;0.956055
30.117142;-0.061768;0.297607;0.958008
30.117365;-0.063232;0.297852;0.958252
30.117586;-0.062012;0.303467;0.959229
30.205923;-0.059814;0.304199;0.956787
30.206200;-0.060547;0.300049;0.958740
30.206436;-0.059814;0.300537;0.957031
30.206661;-0.061768;0.303467;0.956787
30.208239;-0.061279;0.305420;0.959961
30.208467;-0.061768;0.303955;0.958252
30.208693;-0.059082;0.303711;0.956787
30.208916;-0.061035;0.303711;0.958984
30.295444;-0.059814;0.304199;0.957031
30.295731;-0.058594;0.303711;0.955566
30.295967;-0.058350;0.304443;0.955811
30.296194;-0.058105;0.302002;0.954834
30.475458;-0.059326;0.303467;0.955322
30.475754;-0.059082;0.308105;0.956543
30.476006;-0.058105;0.310059;0.958984
30.476250;-0.058105;0.302734;0.953125
30.565678;-0.059326;0.307617;0.960693
30.566002;-0.059082;0.308594;0.958740
30.566252;-0.059326;0.305664;0.957520
30.566496;-0.059082;0.305176;0.957031
30.655357;-0.060791;0.307373;0.958496
30.655624;-0.058838;0.309570;0.957031
30.655861;-0.060547;0.303711;0.954834
30.656088;-0.057373;0.304443;0.956787
30.835423;-0.061035;0.305664;0.957275
30.835711;-0.062012;0.306885;0.957764
30.835947;-0.058838;0.304443;0.956055
30.836172;-0.060059;0.303467;0.958008
30.925131;-0.057373;0.300293;0.955811
30.925404;-0.059082;0.304199;0.955811
30.925638;-0.062256;0.305664;0.959229
30.925863;-0.060303;0.303467;0.956787
31.105358;-0.058838;0.302002;0.956299
31.105629;-0.060059;0.301025;0.955811
31.105869;-0.061279;0.304199;0.959473
31.106098;-0.061035;0.298340;0.957275
31.196112;-0.059814;0.304199;0.957275
31.196362;-0.062256;0.300293;0.957275
31.196678;-0.061523;0.300537;0.959717
31.196905;-0.060303;0.302734;0.955811
31.375484;-0.061035;0.303223;0.956299
31.375780;-0.063477;0.296875;0.958252
31.376017;-0.061523;0.301025;0.958008
31.376245;-0.061279;0.298584;0.958496
31.465897;-0.061279;0.300537;0.960938
31.466187;-0.060059;0.300537;0.956299
31.466425;-0.062012;0.297852;0.959717
31.466656;-0.062744;0.300781;0.960449
31.559452;-0.059570;0.301514;0.956787
31.559719;-0.061523;0.300781;0.958740
31.559956;-0.062012;0.299072;0.958984
31.560183;-0.061768;0.300049;0.958740
32.095524;-0.062744;0.297852;0.959473
32.095825;-0.059082;0.299561;0.961670
32.096188;-0.061279;0.298828;0.957275
32.096420;-0.062012;0.298584;0.959473
32.098595;-0.062500;0.300293;0.960449
32.098835;-0.061279;0.295410;0.958740
32.099064;-0.061523;0.298096;0.959717
32.099289;-0.063721;0.296387;0.958252
32.186447;-0.062256;0.296875;0.959229
32.186867;-0.061523;0.298096;0.960693
32.187134;-0.063232;0.298584;0.959717
32.187366;-0.060791;0.296387;0.957031
32.188507;-0.061279;0.298828;0.960938
32.188740;-0.063965;0.299072;0.959229
32.188965;-0.061035;0.296875;0.956787
32.189304;-0.060791;0.296387;0.959473
32.275578;-0.063721;0.297852;0.959229
32.275768;-0.061768;0.298096;0.959229
32.276089;-0.061279;0.297852;0.962646
32.276493;-0.060059;0.299316;0.960205
32.366016;-0.064941;0.297119;0.959473
32.366318;-0.061035;0.295166;0.958252
32.366837;-0.061035;0.297607;0.958496
32.367470;-0.063232;0.300049;0.958984
32.455162;-0.062500;0.296387;0.957520
32.455330;-0.061768;0.297607;0.957764
32.455463;-0.062744;0.299316;0.959473
32.455585;-0.060791;0.296631;0.956299
32.635452;-0.062500;0.298584;0.956055
32.635757;-0.060059;0.302002;0.960449
32.635998;-0.060303;0.298340;0.959473
32.636227;-0.059326;0.299316;0.961182
32.725216;-0.062256;0.298340;0.957764
32.725502;-0.061768;0.299561;0.960693
32.725742;-0.062256;0.297607;0.957520
32.725971;-0.061523;0.299805;0.960449
32.816242;-0.061768;0.299072;0.958984
32.816494;-0.061768;0.299072;0.958008
32.816727;-0.062988;0.297607;0.958252
32.816952;-0.061523;0.298828;0.958496
32.995407;-0.062012;0.300781;0.958984
32.995552;-0.062012;0.299805;0.958496
32.995686;-0.058594;0.300781;0.956299
32.995804;-0.060303;0.300293;0.962158
33.085735;-0.057617;0.301514;0.955566
33.085861;-0.059814;0.298584;0.957275
33.086018;-0.060547;0.301270;0.960449
33.086266;-0.058594;0.302734;0.953613
33.265343;-0.061768;0.300781;0.958496
33.265636;-0.061523;0.302490;0.958252
33.265873;-0.056396;0.300537;0.955078
33.266098;-0.060791;0.303467;0.956299
33.355171;-0.062012;0.302734;0.957520
33.355320;-0.059326;0.303711;0.955078
33.355667;-0.061279;0.303711;0.959229
33.355858;-0.058105;0.304199;0.956543
33.445415;-0.061279;0.304443;0.958008
33.445713;-0.062256;0.303223;0.957764
33.445881;-0.057861;0.303223;0.958496
33.446259;-0.057373;0.303955;0.955322
33.625359;-0.063232;0.302002;0.958252
33.625607;-0.059570;0.301758;0.956787
33.625828;-0.061523;0.305908;0.958252
33.625996;-0.058594;0.303467;0.955322
33.715374;-0.061035;0.304443;0.957764
33.715672;-0.057617;0.301514;0.956787
33.715904;-0.059570;0.306396;0.961182
33.716129;-0.060547;0.303467;0.954834
33.895428;-0.059814;0.304199;0.958252
33.895592;-0.059814;0.304443;0.956299
33.895954;-0.059814;0.304199;0.955566
33.896076;-0.060303;0.303955;0.956299
33.985676;-0.059570;0.304688;0.957275
33.985817;-0.062256;0.298584;0.957520
33.985939;-0.060059;0.301514;0.958008
33.987133;-0.060059;0.303467;0.955078
34.074867;-0.061523;0.302490;0.957275
34.074928;-0.058105;0.302246;0.956543
34.075035;-0.060059;0.300781;0.957764
34.075073;-0.060059;0.301514;0.955811
34.255081;-0.062012;0.304688;0.959961
34.255253;-0.060303;0.300293;0.956543
34.255341;-0.062988;0.300781;0.959473
34.255402;-0.058105;0.300781;0.956299
34.345749;-0.062500;0.301025;0.958008
34.346039;-0.063477;0.300049;0.959229
34.346275;-0.059814;0.302734;0.957031
34.346504;-0.059570;0.303223;0.957520
34.886356;-0.062256;0.300049;0.958496
34.886654;-0.063232;0.300293;0.958740
34.886894;-0.060791;0.302246;0.958008
34.887123;-0.061768;0.298584;0.958008
34.888756;-0.062500;0.301514;0.959473
34.888992;-0.060059;0.299316;0.957031
34.889221;-0.060059;0.303711;0.960693
34.889446;-0.062256;0.299316;0.957275
34.982697;-0.061279;0.297119;0.957275
34.982986;-0.060303;0.302490;0.958008
34.983231;-0.060303;0.301025;0.957275
34.983463;-0.060791;0.301758;0.957275
35.066010;-0.061768;0.297363;0.958984
35.066456;-0.059326;0.303223;0.957520
35.066700;-0.062256;0.298096;0.957520
35.066929;-0.061279;0.300293;0.960449
35.068684;-0.060303;0.299805;0.957764
35.068924;-0.061035;0.301270;0.957031
35.069656;-0.058105;0.297607;0.959717
35.069893;-0.059814;0.300537;0.957275
35.155731;-0.060059;0.298584;0.960938
35.156017;-0.060547;0.298096;0.959229
35.156258;-0.059570;0.302979;0.957275
35.156490;-0.062012;0.296875;0.958496
35.247711;-0.059570;0.297363;0.959717
35.247982;-0.064453;0.298340;0.958740
35.248226;-0.062256;0.297363;0.959229
35.248455;-0.060547;0.300293;0.959473
35.335854;-0.060303;0.299316;0.960205
35.336155;-0.062012;0.295654;0.957275
35.336395;-0.062500;0.300049;0.959473
35.336624;-0.062500;0.298340;0.959473
35.875641;-0.060791;0.296875;0.959717
35.875965;-0.059814;0.296875;0.958496
35.876205;-0.061279;0.298584;0.960693
35.876453;-0.061523;0.299072;0.959961
35.965626;-0.062012;0.295654;0.958252
35.965927;-0.059814;0.299561;0.960938
35.966228;-0.062012;0.296387;0.958496
35.966442;-0.062012;0.298096;0.958740
36.054661;-0.060547;0.298584;0.959961
36.054901;-0.062256;0.298828;0.959473
36.055134;-0.061279;0.300781;0.960449
36.055328;-0.059814;0.297607;0.957520
36.056442;-0.062988;0.297852;0.959961
36.056580;-0.061768;0.300049;0.959229
36.056786;-0.063721;0.297119;0.959473
36.056946;-0.058594;0.299561;0.962402
36.144119;-0.059082;0.298828;0.954590
36.144390;-0.059814;0.299072;0.961670
36.144478;-0.059570;0.298340;0.960693
36.144608;-0.060303;0.298096;0.958008
36.145065;-0.062988;0.297119;0.958008
36.145142;-0.061768;0.299316;0.961914
36.145275;-0.061279;0.299072;0.956787
36.145363;-0.060791;0.300537;0.963623
36.235603;-0.061035;0.296875;0.957520
36.235802;-0.061035;0.301270;0.957275
36.236153;-0.060059;0.299561;0.961670
36.236393;-0.060791;0.300049;0.959961
36.415359;-0.059570;0.301758;0.958740
36.415642;-0.062500;0.299072;0.958008
36.415874;-0.062744;0.299072;0.958740
36.416103;-0.060303;0.303223;0.956299
36.513073;-0.059326;0.302979;0.956787
36.513309;-0.060059;0.300049;0.957520
36.513824;-0.060547;0.302002;0.958008
36.514160;-0.060791;0.302490;0.957520
36.596321;-0.058594;0.301270;0.957031
36.596573;-0.060791;0.301758;0.957520
36.596809;-0.059082;0.302979;0.957031
36.597038;-0.060791;0.303955;0.956787
37.136299;-0.060303;0.303711;0.958008
37.136635;-0.060791;0.299072;0.958984
37.136879;-0.061279;0.303711;0.956543
37.137112;-0.060791;0.303467;0.957764
37.224941;-0.059082;0.298828;0.957275
37.225319;-0.061768;0.302490;0.958496
37.225563;-0.059814;0.303223;0.956299
37.225792;-0.062500;0.300781;0.958496
37.314877;-0.059814;0.304443;0.958008
37.315220;-0.058594;0.304688;0.954834
37.315582;-0.061523;0.302490;0.959473
37.315811;-0.058594;0.305908;0.957275
37.317009;-0.056641;0.302979;0.956055
37.317265;-0.062500;0.300293;0.957520
37.317490;-0.060303;0.305420;0.959717
37.317787;-0.058838;0.302979;0.953857
37.319435;-0.061035;0.304932;0.959473
37.319672;-0.056152;0.307861;0.957031
37.319897;-0.061035;0.303711;0.955811
37.320126;-0.058350;0.301025;0.953857
37.406162;-0.056885;0.299316;0.956787
37.406418;-0.061035;0.302979;0.956299
37.406651;-0.060791;0.305420;0.958496
37.406879;-0.058838;0.303223;0.957275
37.495510;-0.061523;0.304688;0.959229
37.495834;-0.057617;0.300781;0.955811
37.496075;-0.060547;0.304443;0.957275
37.496304;-0.059082;0.302979;0.956543
37.675327;-0.060547;0.303223;0.956787
37.675610;-0.059570;0.302002;0.957031
37.675987;-0.060547;0.301758;0.957275
37.676216;-0.059326;0.303223;0.957520
37.766029;-0.060059;0.303223;0.956055
37.766285;-0.058594;0.301270;0.957275
37.766521;-0.061035;0.299561;0.958252
37.766750;-0.060303;0.302002;0.957031
37.855301;-0.059570;0.304443;0.956543
37.855587;-0.063965;0.297852;0.958740
37.855824;-0.059082;0.301270;0.960938
37.856056;-0.059082;0.304199;0.954590
38.035480;-0.060303;0.298828;0.962646
38.035770;-0.058105;0.303223;0.955322
38.036011;-0.058350;0.301514;0.956299
38.036240;-0.062744;0.295898;0.957764
38.125603;-0.061523;0.303467;0.958496
38.125904;-0.060059;0.298828;0.956787
38.126144;-0.059570;0.299316;0.960938
38.126408;-0.060303;0.301270;0.957275
38.665024;-0.059082;0.301514;0.956543
38.665089;-0.063965;0.298828;0.959229
38.665142;-0.061035;0.300293;0.958252
38.665188;-0.061035;0.300293;0.958252
38.754841;-0.062988;0.297852;0.958496
38.755047;-0.062256;0.300293;0.959473
38.755112;-0.061035;0.297852;0.958252
38.755203;-0.061035;0.299805;0.960449
38.845505;-0.060791;0.298340;0.961182
38.845661;-0.061523;0.300781;0.959717
38.845768;-0.062256;0.297852;0.959229
38.846024;-0.062988;0.297119;0.960449
38.935970;-0.061279;0.297607;0.959473
38.936375;-0.061523;0.299561;0.959473
38.936764;-0.062256;0.299561;0.959229
38.936996;-0.059570;0.296631;0.955566
38.938156;-0.059570;0.300781;0.962402
38.938389;-0.061279;0.298340;0.958008
38.938618;-0.061768;0.295410;0.959229
38.938843;-0.059570;0.298828;0.961670
38.939655;-0.058594;0.300537;0.955322
38.939892;-0.063477;0.292969;0.958984
38.940117;-0.059326;0.299561;0.957520
38.940342;-0.061035;0.300049;0.958252
39.026123;-0.062012;0.294922;0.958740
39.026375;-0.061035;0.300293;0.961182
39.026611;-0.062500;0.298340;0.958008
39.026840;-0.060547;0.295654;0.960693
39.115643;-0.060303;0.298340;0.957520
39.115948;-0.062988;0.298828;0.959229
39.116184;-0.062012;0.298340;0.962158
39.116413;-0.059814;0.295166;0.956543
39.655609;-0.061279;0.299316;0.959961
39.656494;-0.062744;0.296875;0.959473
39.657017;-0.060059;0.296875;0.958984
39.657253;-0.061523;0.299316;0.959473
39.658527;-0.061523;0.296387;0.960205
39.658760;-0.062256;0.298096;0.958740
39.658993;-0.060547;0.297607;0.960693
39.659218;-0.060791;0.296143;0.958984
39.745628;-0.061768;0.295410;0.958008
39.745934;-0.062256;0.297852;0.958740
39.746304;-0.058594;0.300781;0.961182
39.746536;-0.058350;0.299072;0.961914
39.835945;-0.057373;0.294189;0.954834
39.836231;-0.062012;0.298340;0.959961
39.836472;-0.059814;0.298340;0.959229
39.836700;-0.060791;0.298828;0.961182
39.837864;-0.058594;0.298340;0.961670
39.838097;-0.062256;0.298828;0.956299
39.838322;-0.060059;0.296143;0.960205
39.838547;-0.060303;0.301270;0.958740
39.925606;-0.061035;0.299561;0.958984
39.925892;-0.062256;0.294922;0.959229
39.926132;-0.059326;0.302979;0.957031
39.926357;-0.061523;0.298096;0.958740
40.015511;-0.060059;0.299072;0.961426
40.015808;-0.059082;0.300537;0.956787
40.016045;-0.062744;0.298828;0.958740
40.016273;-0.060547;0.301514;0.957764
40.195660;-0.060059;0.301514;0.957764
40.195946;-0.060303;0.302979;0.956055
40.196190;-0.061523;0.298340;0.958496
40.196419;-0.061523;0.303467;0.958740
40.285480;-0.059082;0.302246;0.955811
40.285793;-0.060791;0.300781;0.958984
40.286034;-0.059082;0.303467;0.954346
40.286266;-0.060303;0.304199;0.957031
40.384571;-0.058105;0.301270;0.956543
40.385380;-0.059814;0.304443;0.957275
40.385609;-0.060059;0.304932;0.958496
40.385845;-0.059570;0.304688;0.956543
40.915817;-0.058594;0.300537;0.958496
40.916355;-0.059326;0.305420;0.958252
40.916641;-0.057617;0.302979;0.953369
40.916878;-0.063477;0.300537;0.959229
41.006721;-0.058350;0.304932;0.956299
41.007000;-0.059082;0.304932;0.955322
41.007240;-0.060547;0.302979;0.958984
41.007469;-0.056396;0.300049;0.956543
41.010128;-0.059570;0.303711;0.956787
41.010368;-0.061279;0.301025;0.958496
41.010597;-0.060547;0.303955;0.955322
41.010822;-0.061279;0.302490;0.955078
41.094933;-0.058594;0.301025;0.961182
41.095032;-0.057861;0.302246;0.954834
41.095085;-0.061279;0.302979;0.959961
41.095135;-0.059570;0.300781;0.957275
41.096539;-0.057861;0.303711;0.956787
41.096603;-0.059814;0.302734;0.954590
41.096657;-0.061035;0.302002;0.957275
41.096706;-0.060547;0.301758;0.958496
41.185329;-0.059326;0.300781;0.957275
41.185402;-0.061768;0.299561;0.960205
41.185455;-0.061035;0.299561;0.957764
41.185509;-0.060059;0.302002;0.958496
41.274742;-0.062012;0.297852;0.956543
41.274822;-0.060791;0.300537;0.957764
41.274883;-0.061035;0.300537;0.960449
41.275005;-0.059814;0.298096;0.956787
41.455437;-0.060303;0.298584;0.960205
41.455746;-0.061279;0.299561;0.959717
41.455990;-0.062988;0.298340;0.958740
41.456219;-0.060547;0.299316;0.960693
41.546368;-0.061279;0.299561;0.956299
41.546623;-0.059814;0.298828;0.962646
41.546860;-0.061035;0.299316;0.959717
41.547085;-0.061279;0.297852;0.958496
41.635426;-0.061768;0.297119;0.961182
41.635799;-0.062988;0.300049;0.959717
41.636040;-0.062012;0.295654;0.957520
41.636272;-0.061523;0.295410;0.961182
41.815521;-0.059570;0.298828;0.956787
41.816235;-0.062012;0.298096;0.959961
41.816490;-0.061768;0.296387;0.958740
41.816723;-0.060547;0.299072;0.961182
41.905586;-0.062744;0.296631;0.959473
41.905869;-0.062012;0.296387;0.957764
41.906113;-0.061523;0.297363;0.961914
41.906342;-0.062256;0.297119;0.959229
42.448860;-0.061035;0.297363;0.958984
42.449135;-0.061279;0.297119;0.959717
42.449371;-0.060791;0.295898;0.956299
42.449608;-0.060547;0.297119;0.958496
42.535816;-0.061279;0.295898;0.956543
42.535980;-0.060303;0.297363;0.960205
42.536091;-0.060303;0.298828;0.962158
42.536346;-0.060791;0.298828;0.960205
42.537113;-0.062256;0.292725;0.957764
42.537395;-0.063232;0.297852;0.959473
42.537483;-0.061035;0.297852;0.958252
42.537563;-0.062012;0.296631;0.962402
42.625732;-0.060303;0.295898;0.960449
42.626019;-0.063232;0.298096;0.958008
42.626534;-0.061523;0.295410;0.961182
42.626770;-0.062012;0.296387;0.958008
42.628391;-0.062012;0.296875;0.959473
42.628628;-0.062744;0.295898;0.958984
42.628857;-0.060791;0.297119;0.960693
42.629082;-0.062500;0.295654;0.957764
42.715839;-0.060059;0.296387;0.958740
42.716141;-0.062012;0.295654;0.957275
42.716381;-0.062988;0.296143;0.958496
42.716614;-0.061035;0.299805;0.961426
42.805344;-0.061523;0.296143;0.958496
42.805630;-0.061035;0.298096;0.960205
42.805870;-0.062500;0.296631;0.958984
42.806099;-0.061279;0.295898;0.959229
42.895592;-0.062012;0.296875;0.958252
42.895966;-0.061523;0.297607;0.961182
42.896210;-0.060791;0.295654;0.958008
42.896439;-0.061035;0.297363;0.960205
43.443420;-0.061035;0.296143;0.958984
43.443893;-0.060791;0.296387;0.958496
43.444141;-0.061523;0.297363;0.958984
43.444492;-0.060791;0.296875;0.959473
43.526291;-0.061768;0.299316;0.960205
43.526562;-0.061768;0.294678;0.957520
43.526798;-0.062744;0.295654;0.957764
43.527027;-0.061035;0.299316;0.960938
43.615841;-0.061768;0.297607;0.958496
43.616131;-0.061035;0.294678;0.955322
43.616371;-0.062012;0.299072;0.959961
43.616600;-0.059082;0.295898;0.956299
43.705715;-0.062256;0.297119;0.960938
43.706009;-0.060547;0.298340;0.960205
43.706440;-0.062012;0.299072;0.960205
43.706676;-0.058350;0.299316;0.962891
43.795151;-0.058838;0.298828;0.956543
43.795670;-0.062744;0.298340;0.958252
43.795975;-0.061768;0.297119;0.958496
43.796295;-0.063721;0.300781;0.959961
43.797775;-0.060791;0.298828;0.958740
43.798107;-0.057861;0.298828;0.962158
43.798462;-0.059570;0.299316;0.956299
43.798618;-0.062500;0.301270;0.960205
43.800362;-0.062744;0.300781;0.958252
43.800537;-0.059082;0.301025;0.956787
43.800644;-0.062256;0.299316;0.958252
43.800827;-0.059814;0.301758;0.957520
44.337280;-0.060059;0.301758;0.956787
44.337536;-0.060303;0.303711;0.956543
44.337772;-0.059814;0.302979;0.956787
44.338001;-0.058350;0.301514;0.956787
44.425278;-0.059814;0.303955;0.956787
44.425591;-0.059814;0.304443;0.957031
44.425831;-0.061523;0.302490;0.955811
44.426064;-0.058594;0.306152;0.960205
44.515354;-0.061768;0.303467;0.956787
44.515751;-0.058594;0.305420;0.956055
44.515995;-0.056885;0.296387;0.958008
44.516342;-0.060303;0.305176;0.958984
44.517265;-0.062500;0.306885;0.958740
44.517506;-0.058838;0.297607;0.956055
44.518215;-0.060059;0.305420;0.960205
44.518448;-0.058350;0.302490;0.953857
44.520039;-0.061523;0.299805;0.958008
44.520267;-0.059326;0.304932;0.960938
44.520493;-0.058838;0.302490;0.952881
44.520718;-0.060303;0.305176;0.960693
44.606468;-0.056885;0.302002;0.955566
44.606720;-0.058838;0.302490;0.957031
44.606953;-0.061279;0.301025;0.957764
44.607185;-0.060303;0.306152;0.960693
44.695892;-0.059326;0.300293;0.955811
44.696186;-0.060547;0.301514;0.959229
44.696426;-0.058105;0.302734;0.952881
44.696655;-0.059814;0.302002;0.955566
44.785435;-0.060303;0.301025;0.960205
44.785721;-0.058105;0.302490;0.956055
44.785954;-0.060059;0.302246;0.956787
44.786182;-0.061523;0.299805;0.958740
45.330841;-0.058838;0.302734;0.958252
45.331093;-0.059570;0.301758;0.957764
45.331329;-0.062256;0.298584;0.958496
45.331558;-0.060547;0.299805;0.958008
45.416794;-0.062012;0.300049;0.958740
45.416843;-0.060303;0.301514;0.957275
45.416874;-0.062012;0.298096;0.959229
45.416901;-0.062012;0.299805;0.958496
45.505413;-0.060547;0.299316;0.960205
45.505608;-0.060059;0.299805;0.960938
45.505737;-0.060547;0.297363;0.959961
45.505821;-0.061035;0.297363;0.959717
45.595612;-0.061523;0.299561;0.957764
45.595909;-0.064453;0.298340;0.959229
45.596539;-0.061279;0.298096;0.958496
45.596775;-0.062012;0.297363;0.959717
45.597382;-0.062744;0.295898;0.960693
45.597618;-0.060791;0.297852;0.958496
45.597839;-0.063477;0.295410;0.958008
45.598064;-0.059570;0.297852;0.962402
45.685158;-0.061279;0.296875;0.958496
45.685444;-0.062012;0.296875;0.958008
45.686077;-0.063232;0.294922;0.959961
45.686325;-0.061768;0.295410;0.958252
45.686836;-0.063232;0.295654;0.958496
45.687065;-0.062012;0.294678;0.960938
45.687286;-0.061768;0.295654;0.957520
45.687508;-0.062500;0.295166;0.958984
46.225739;-0.060303;0.299561;0.963623
46.226067;-0.061768;0.293945;0.957275
46.226303;-0.059814;0.296387;0.958008
46.226807;-0.062744;0.295166;0.958740
46.228760;-0.061523;0.294434;0.958252
46.228992;-0.061279;0.296875;0.961426
46.229218;-0.062500;0.295654;0.958740
46.229439;-0.062256;0.297119;0.959961
46.323456;-0.061035;0.297119;0.959229
46.323685;-0.062256;0.295166;0.959229
46.323837;-0.060547;0.296387;0.959473
46.324074;-0.061523;0.295410;0.959229
46.406891;-0.061768;0.296387;0.958252
46.407150;-0.060791;0.296631;0.959229
46.407383;-0.060547;0.297607;0.962402
46.407608;-0.061523;0.296875;0.959229
46.409008;-0.061768;0.295410;0.958008
46.409241;-0.063477;0.293213;0.959717
46.409981;-0.059082;0.298096;0.960693
46.410206;-0.062744;0.293945;0.960938
46.495644;-0.061768;0.293213;0.963135
46.495926;-0.060059;0.297363;0.956543
46.496159;-0.063721;0.293701;0.960205
46.496387;-0.060303;0.295166;0.958984
46.585457;-0.060547;0.297852;0.956543
46.585747;-0.064697;0.293701;0.958740
46.585979;-0.061768;0.294922;0.955811
46.586239;-0.062500;0.296875;0.960449
46.765266;-0.062500;0.293945;0.959473
46.765625;-0.060059;0.294922;0.958496
46.765869;-0.062744;0.294678;0.957520
46.766094;-0.061279;0.295898;0.961670
46.855492;-0.062988;0.294922;0.958740
46.855797;-0.061035;0.296631;0.959473
46.856030;-0.062988;0.293701;0.958984
46.856258;-0.062500;0.296631;0.959717
46.946877;-0.061768;0.294434;0.956543
46.947132;-0.062256;0.294922;0.957764
46.947369;-0.061768;0.296143;0.958740
46.947598;-0.061279;0.294678;0.958740
47.125946;-0.062012;0.295654;0.957520
47.126251;-0.062256;0.293457;0.960205
47.126629;-0.062744;0.294678;0.958496
47.126858;-0.062012;0.295166;0.958984
47.215549;-0.062500;0.295410;0.959473
47.215851;-0.062500;0.294189;0.958984
47.216087;-0.063232;0.295898;0.958496
47.216316;-0.061523;0.295654;0.960449
47.395508;-0.061035;0.294189;0.957520
47.395821;-0.063477;0.296143;0.959717
47.396053;-0.061035;0.295166;0.957275
47.396282;-0.059814;0.293701;0.958740
47.485901;-0.062256;0.295654;0.963623
47.486183;-0.061035;0.296631;0.956055
47.486420;-0.062744;0.298096;0.957031
47.486649;-0.060059;0.294922;0.960205
47.575462;-0.061768;0.299561;0.958252
47.575741;-0.063232;0.296875;0.958984
47.575977;-0.062744;0.295166;0.958496
47.576206;-0.061523;0.297363;0.960205
48.115860;-0.062012;0.296387;0.957275
48.116016;-0.059570;0.294434;0.960693
48.116142;-0.060303;0.296875;0.954590
48.117146;-0.061768;0.297363;0.960449
48.117245;-0.061035;0.296875;0.958984
48.117329;-0.060059;0.298828;0.959473
48.117409;-0.061279;0.295166;0.958496
48.117489;-0.063232;0.296143;0.959229
48.210781;-0.060791;0.299072;0.961426
48.210999;-0.062744;0.295898;0.958252
48.211094;-0.061035;0.298340;0.960205
48.211178;-0.062256;0.297852;0.959473
48.216511;-0.062988;0.299072;0.958740
48.216759;-0.062500;0.298096;0.959473
48.216991;-0.060547;0.300293;0.958252
48.217216;-0.059326;0.301025;0.962158
48.296112;-0.062012;0.298096;0.959229
48.296417;-0.061279;0.299561;0.958740
48.296680;-0.061279;0.300537;0.958984
48.296909;-0.062256;0.300049;0.959717
48.385540;-0.059814;0.296875;0.956055
48.385826;-0.061523;0.302246;0.957520
48.386066;-0.058105;0.302246;0.956543
48.386295;-0.062012;0.294434;0.955811
48.475754;-0.059570;0.302246;0.960693
48.476036;-0.059814;0.304932;0.955078
48.476273;-0.062500;0.300781;0.958740
48.476501;-0.057861;0.304199;0.959717
48.655529;-0.060303;0.300293;0.957520
48.655834;-0.062500;0.299072;0.958252
48.656071;-0.060059;0.305420;0.958984
48.656303;-0.059570;0.302002;0.954834
48.746368;-0.059814;0.301025;0.959717
48.746620;-0.059082;0.304932;0.957031
48.746853;-0.059570;0.309326;0.958008
48.747082;-0.062500;0.293457;0.954346
48.836903;-0.058594;0.299316;0.959717
48.837200;-0.057373;0.306152;0.956787
48.837437;-0.062256;0.304443;0.958984
48.837669;-0.060791;0.299072;0.957275
49.015671;-0.060791;0.305664;0.958252
49.015999;-0.061035;0.304688;0.958252
49.016220;-0.059326;0.301025;0.955566
49.016399;-0.057861;0.305908;0.956543
49.106777;-0.060303;0.304932;0.957520
49.107033;-0.058594;0.302490;0.954834
49.107162;-0.058838;0.305664;0.959229
49.108334;-0.059814;0.303467;0.955566
49.286900;-0.059082;0.308594;0.959961
49.287197;-0.061768;0.303223;0.957764
49.287437;-0.058594;0.302490;0.954346
49.287666;-0.060547;0.304688;0.955811
49.375645;-0.061035;0.303467;0.958496
49.375954;-0.058350;0.304932;0.958252
49.376286;-0.059570;0.304688;0.956299
49.376514;-0.060059;0.302734;0.957275
49.555206;-0.058105;0.301025;0.956055
49.555504;-0.059814;0.303711;0.955322
49.555744;-0.062012;0.302246;0.958496
49.555973;-0.059814;0.303955;0.955811
49.645565;-0.062256;0.298828;0.959229
49.645882;-0.058838;0.303467;0.956787
49.646118;-0.060547;0.303955;0.954834
49.646347;-0.060547;0.302246;0.957031
49.736862;-0.059326;0.301758;0.956543
49.737122;-0.059570;0.303711;0.955078
49.737354;-0.061035;0.302979;0.956055
49.737583;-0.059326;0.302246;0.955811
50.277210;-0.060547;0.302490;0.955566
50.277531;-0.060303;0.300537;0.957520
50.277771;-0.060547;0.301758;0.956787
50.278000;-0.061523;0.300781;0.958740
50.289616;-0.060547;0.300781;0.958496
50.289909;-0.060059;0.301270;0.957275
50.290150;-0.060059;0.302246;0.958252
50.290379;-0.060547;0.301025;0.957520
50.368351;-0.062988;0.299316;0.959229
50.368610;-0.061523;0.300049;0.956543
50.368843;-0.059082;0.302002;0.957031
50.369076;-0.061035;0.298828;0.961182
50.455467;-0.060303;0.301025;0.961182
50.455894;-0.060303;0.301025;0.956543
50.456139;-0.060303;0.298340;0.961426
50.456367;-0.061035;0.300781;0.958496
50.457893;-0.060547;0.298096;0.958984
50.458134;-0.062988;0.296631;0.959229
50.458359;-0.063477;0.300049;0.959961
50.458584;-0.060303;0.297119;0.955566
50.548264;-0.060547;0.300537;0.962402
50.548561;-0.062012;0.295410;0.957764
50.548805;-0.060791;0.298584;0.957520
50.549038;-0.062256;0.298584;0.960938
50.636520;-0.060547;0.295898;0.956787
50.636913;-0.062012;0.299072;0.959473
50.637161;-0.063965;0.296631;0.957764
50.637756;-0.062012;0.295166;0.957520
50.727287;-0.061279;0.297363;0.959961
50.727837;-0.060791;0.297607;0.960205
50.728210;-0.063477;0.296875;0.959229
50.728447;-0.063477;0.295410;0.957764
51.266537;-0.061523;0.297363;0.959473
51.266842;-0.062256;0.295898;0.959473
51.267159;-0.060059;0.299316;0.960205
51.267399;-0.061523;0.297363;0.959473
51.355732;-0.061768;0.295898;0.957275
51.356045;-0.060303;0.298584;0.961182
51.356277;-0.061279;0.295410;0.957520
51.356510;-0.061768;0.296875;0.962646
51.536121;-0.061523;0.296875;0.959473
51.536423;-0.062012;0.297852;0.960449
51.536785;-0.060791;0.297363;0.961182
51.537014;-0.062012;0.297119;0.958984
51.537445;-0.062256;0.297607;0.959473
51.537678;-0.063721;0.295654;0.959229
51.537903;-0.061279;0.296875;0.959961
51.538128;-0.061523;0.297363;0.958496
51.627129;-0.060791;0.295410;0.959229
51.627438;-0.062012;0.296387;0.956787
51.627674;-0.061279;0.298340;0.960938
51.628048;-0.061768;0.295898;0.960938
51.629524;-0.061279;0.296143;0.960449
51.629761;-0.061768;0.296875;0.959717
51.629993;-0.063965;0.294678;0.958252
51.630215;-0.060303;0.295654;0.958984
51.631130;-0.062256;0.298340;0.959229
51.631363;-0.062256;0.296631;0.960205
51.631588;-0.063721;0.293945;0.959473
51.631817;-0.060791;0.298096;0.958984
51.805977;-0.061035;0.295166;0.960205
51.806286;-0.063232;0.294678;0.957275
51.806526;-0.062500;0.296387;0.958008
51.806755;-0.062500;0.296631;0.959473
51.897881;-0.060547;0.297363;0.960449
51.898193;-0.061768;0.298340;0.960938
51.898434;-0.064697;0.290771;0.958496
51.898663;-0.061523;0.297607;0.962402
52.435738;-0.061035;0.296875;0.957275
52.436047;-0.061523;0.296631;0.961426
52.436287;-0.062500;0.294678;0.959717
52.436646;-0.062500;0.296631;0.955322
52.529526;-0.062012;0.296387;0.963867
52.529808;-0.060059;0.296143;0.956299
52.530052;-0.062012;0.298584;0.960693
52.530281;-0.062500;0.294189;0.958252
52.532188;-0.062012;0.296875;0.961182
52.532444;-0.060303;0.294922;0.955566
52.532669;-0.062744;0.296387;0.960205
52.533379;-0.062012;0.294922;0.957520
52.615807;-0.063721;0.295654;0.959229
52.616291;-0.061768;0.295654;0.959229
52.616543;-0.060059;0.297607;0.962402
52.616772;-0.060059;0.296631;0.958740
52.619308;-0.062500;0.293945;0.957275
52.619545;-0.060791;0.298584;0.962891
52.619774;-0.062256;0.295654;0.959229
52.619995;-0.062256;0.296143;0.960205
52.705231;-0.062256;0.295166;0.959473
52.705521;-0.061035;0.296387;0.959229
52.705757;-0.060059;0.295898;0.959717
52.705986;-0.062744;0.293945;0.957275
52.795914;-0.062012;0.295410;0.959229
52.796238;-0.061035;0.296143;0.958008
52.796478;-0.059814;0.298340;0.961426
52.796711;-0.062988;0.295898;0.959473
52.886810;-0.059814;0.296631;0.960449
52.887070;-0.062256;0.294189;0.957764
52.887302;-0.058838;0.299561;0.962646
52.887531;-0.059814;0.298584;0.961182
53.065804;-0.062012;0.295654;0.958008
53.066101;-0.062500;0.297119;0.960693
53.066414;-0.059570;0.297852;0.960449
53.066643;-0.062012;0.294922;0.958740
53.155621;-0.060303;0.299316;0.964844
53.155914;-0.061035;0.296387;0.954590
53.156151;-0.061523;0.298584;0.961182
53.156376;-0.061035;0.297363;0.958740
53.245735;-0.061279;0.299316;0.958252
53.246029;-0.061035;0.297119;0.960938
53.246269;-0.063721;0.296143;0.958740
53.246498;-0.061523;0.298096;0.957764
53.425694;-0.062744;0.297852;0.961182
53.425999;-0.061279;0.297607;0.959229
53.426239;-0.061035;0.298340;0.958008
53.426464;-0.063232;0.300781;0.958740
53.516682;-0.060303;0.297607;0.960449
53.516937;-0.061768;0.299316;0.959473
53.517170;-0.062744;0.298096;0.959229
53.517399;-0.061768;0.298828;0.960449
53.695538;-0.063232;0.300537;0.958740
53.695965;-0.061523;0.299316;0.958984
53.696205;-0.062500;0.301025;0.958252
53.696434;-0.059814;0.301270;0.956543
53.785892;-0.060547;0.300293;0.958740
53.786198;-0.061523;0.298828;0.958740
53.786434;-0.059814;0.302490;0.958984
53.786663;-0.061768;0.297852;0.957275
53.967079;-0.059326;0.302246;0.956055
53.967812;-0.061035;0.303467;0.959717
53.968056;-0.060059;0.302246;0.956055
53.968288;-0.060791;0.301270;0.957520
54.056046;-0.060303;0.304199;0.957031
54.056343;-0.058838;0.303223;0.955811
54.056583;-0.061035;0.299805;0.959473
54.056999;-0.059326;0.304688;0.955566
54.145622;-0.058838;0.301758;0.957764
54.145920;-0.063721;0.298584;0.959717
54.146164;-0.060059;0.308350;0.959961
54.146397;-0.057617;0.306396;0.955566
54.686436;-0.058350;0.303223;0.958496
54.686752;-0.059082;0.303223;0.955566
54.686993;-0.058838;0.302979;0.956543
54.687222;-0.063477;0.300781;0.957520
54.774960;-0.060303;0.303223;0.955566
54.775688;-0.059326;0.301025;0.957520
54.775936;-0.060303;0.301514;0.958984
54.776169;-0.059082;0.302734;0.953857
54.865150;-0.060303;0.301025;0.957031
54.865452;-0.061035;0.300537;0.958496
54.865826;-0.058594;0.302490;0.956787
54.866058;-0.061035;0.302490;0.958496
54.867188;-0.060303;0.300049;0.957764
54.867428;-0.062500;0.299805;0.959473
54.867851;-0.060791;0.302490;0.956543
54.868088;-0.060303;0.297852;0.958496
54.955475;-0.060547;0.299561;0.959717
54.956272;-0.062988;0.300293;0.958984
54.956543;-0.061035;0.297119;0.959229
54.956776;-0.062256;0.299316;0.958984
54.958004;-0.062012;0.301270;0.959473
54.958237;-0.061768;0.299072;0.958008
54.958466;-0.060791;0.299072;0.960938
54.958691;-0.063721;0.296875;0.958984
55.047836;-0.060059;0.300049;0.961670
55.048134;-0.061768;0.298340;0.959473
55.048374;-0.065186;0.295410;0.958740
55.048603;-0.060547;0.300781;0.958496
55.135639;-0.062012;0.294678;0.956299
55.135948;-0.060791;0.296143;0.960938
55.136185;-0.061768;0.298340;0.957520
55.136616;-0.063477;0.295898;0.960449
55.315762;-0.060547;0.295898;0.960449
55.315933;-0.062012;0.297119;0.958740
55.316090;-0.061523;0.294434;0.957520
55.316238;-0.062988;0.293701;0.957031
55.407784;-0.062988;0.297607;0.958740
55.407970;-0.061768;0.293945;0.960205
55.408131;-0.059326;0.296143;0.960938
55.408283;-0.062012;0.294922;0.956299
55.586498;-0.062012;0.296631;0.960693
55.586784;-0.060303;0.298828;0.960938
55.587029;-0.062256;0.296387;0.958740
55.587254;-0.063477;0.293457;0.958984
55.675831;-0.063232;0.295166;0.959229
55.676125;-0.062500;0.296631;0.960938
55.676361;-0.062744;0.293701;0.958496
55.676590;-0.062744;0.296143;0.959229
55.855930;-0.061035;0.296875;0.961182
55.856243;-0.062012;0.294189;0.957031
55.856483;-0.062012;0.294922;0.958252
55.856716;-0.063721;0.294434;0.956787
55.947517;-0.061035;0.295166;0.958252
55.947815;-0.063477;0.294678;0.958496
55.948101;-0.062012;0.294434;0.959229
55.948334;-0.059326;0.295898;0.961182
56.035740;-0.063721;0.292969;0.960205
56.036030;-0.062744;0.292480;0.959961
56.036266;-0.062744;0.296631;0.958740
56.036495;-0.061035;0.295410;0.959229
56.216732;-0.062256;0.296875;0.967529
56.217030;-0.062500;0.293701;0.957764
56.217270;-0.064209;0.297607;0.958984
56.217499;-0.060547;0.296631;0.961182
56.306435;-0.061279;0.294922;0.955078
56.306713;-0.060791;0.297607;0.961182
56.306946;-0.065430;0.292480;0.958496
56.307175;-0.061035;0.298096;0.962646
56.396038;-0.060791;0.293701;0.956055
56.396244;-0.062256;0.297119;0.963623
56.396618;-0.062500;0.292969;0.957031
56.397072;-0.062256;0.295166;0.960205
56.575863;-0.064453;0.296631;0.958984
56.576191;-0.061279;0.294678;0.958252
56.576431;-0.060303;0.294922;0.958252
56.576664;-0.064209;0.295898;0.958252
56.669025;-0.061768;0.295410;0.958496
56.669277;-0.061035;0.295410;0.958740
56.669514;-0.060547;0.300049;0.961670
56.669743;-0.060547;0.292725;0.956543
56.846031;-0.060059;0.300781;0.961670
56.846340;-0.062012;0.296387;0.958740
56.846577;-0.062256;0.294434;0.957764
56.846806;-0.059570;0.298096;0.961670
56.935871;-0.062012;0.297852;0.957275
56.936165;-0.061279;0.294922;0.956299
56.936405;-0.061035;0.299561;0.964111
56.936634;-0.062256;0.295654;0.957031
57.025791;-0.061035;0.296631;0.956299
57.026112;-0.062256;0.299316;0.961426
57.026352;-0.060059;0.299805;0.957764
57.026581;-0.063232;0.294189;0.957764
57.205666;-0.060303;0.299805;0.962646
57.206013;-0.057861;0.300293;0.955566
57.206249;-0.062256;0.299316;0.961914
57.206482;-0.062012;0.298340;0.960205
57.296467;-0.058838;0.302490;0.956055
57.296722;-0.063721;0.297363;0.959229
57.296959;-0.060791;0.298096;0.958496
57.297184;-0.060547;0.299072;0.956543
57.475983;-0.062744;0.303955;0.964844
57.476330;-0.060059;0.295166;0.951660
57.476578;-0.060303;0.299316;0.957031
57.476810;-0.060547;0.302246;0.960205
57.565800;-0.061523;0.300049;0.958496
57.566093;-0.060303;0.303711;0.956055
57.566330;-0.060547;0.300293;0.957764
57.566563;-0.061523;0.302002;0.957764
57.745983;-0.059814;0.302734;0.956787
57.746288;-0.061523;0.302734;0.958984
57.747093;-0.061768;0.299805;0.957764
57.747330;-0.057617;0.303223;0.959229
57.836037;-0.062500;0.300781;0.958008
57.836342;-0.062256;0.299805;0.960449
57.836582;-0.061768;0.295410;0.954590
57.836815;-0.061035;0.300049;0.961426
57.925560;-0.061279;0.297607;0.958252
57.925842;-0.063965;0.298096;0.958984
57.926079;-0.061768;0.294678;0.956787
57.926304;-0.059326;0.302979;0.958252
58.466160;-0.060791;0.295410;0.961914
58.466606;-0.062256;0.292725;0.956543
58.466846;-0.060303;0.304199;0.963623
58.467148;-0.066162;0.288574;0.957275
58.468987;-0.062744;0.291504;0.958740
58.469223;-0.061523;0.300781;0.963379
58.469452;-0.065186;0.286377;0.953369
58.469677;-0.063965;0.293701;0.961914
58.556988;-0.062500;0.290527;0.954346
58.557339;-0.062744;0.293701;0.963623
58.557571;-0.061035;0.293701;0.960693
58.557800;-0.061035;0.298096;0.958008
58.645947;-0.062256;0.294434;0.956787
58.646385;-0.062988;0.296875;0.962158
58.646729;-0.051270;0.312988;0.960449
58.647381;-0.058594;0.287109;0.957031
58.648685;-0.062256;0.291504;0.965088
58.648918;-0.059326;0.309326;0.956543
58.649143;-0.062256;0.294922;0.958740
58.649364;-0.063232;0.290771;0.957764
58.735886;-0.056152;0.300293;0.961914
58.736176;-0.059570;0.304932;0.959717
58.736408;-0.062500;0.299805;0.961182
58.736641;-0.064453;0.286621;0.951660
58.825806;-0.056396;0.302979;0.962646
58.826126;-0.061035;0.302002;0.957764
58.826363;-0.062256;0.290527;0.957031
58.826591;-0.062256;0.302734;0.964844
58.917645;-0.060059;0.295898;0.952148
58.917980;-0.057373;0.301025;0.962646
58.918221;-0.063232;0.299805;0.958740
58.918449;-0.058594;0.306152;0.962891
59.457188;-0.058594;0.298828;0.954834
59.457447;-0.058838;0.303711;0.959229
59.457684;-0.059570;0.303223;0.955322
59.457909;-0.061035;0.299072;0.957764
59.458378;-0.058838;0.302246;0.958740
59.458614;-0.060547;0.303955;0.959229
59.458839;-0.061523;0.296875;0.956543
59.459061;-0.059326;0.302002;0.961182
59.547081;-0.058105;0.301758;0.955566
59.547340;-0.059570;0.302002;0.956299
59.547626;-0.063232;0.298584;0.957520
59.547947;-0.059814;0.302490;0.957764
59.548412;-0.060791;0.298828;0.959229
59.548683;-0.062012;0.298584;0.959229
59.548912;-0.062988;0.295654;0.958496
59.549137;-0.059570;0.301514;0.959717
59.636078;-0.062500;0.298340;0.959229
59.636368;-0.060303;0.299316;0.961182
59.636604;-0.059814;0.300049;0.959473
59.636829;-0.062012;0.297119;0.956299
59.734898;-0.061279;0.298584;0.960205
59.735176;-0.062012;0.299805;0.957764
59.735416;-0.063477;0.299072;0.960205
59.735649;-0.061279;0.300293;0.958984
59.815865;-0.061768;0.297363;0.957520
59.816189;-0.061523;0.300049;0.959961
59.816429;-0.060547;0.299072;0.959473
59.816658;-0.063721;0.301025;0.960205
59.995617;-0.060059;0.300049;0.958496
59.995903;-0.059814;0.304199;0.954590
59.996140;-0.060059;0.302002;0.958252
59.996365;-0.058105;0.302002;0.957520
60.086437;-0.060791;0.299805;0.957031
60.086693;-0.061279;0.300293;0.958740
60.086926;-0.059082;0.303711;0.955078
60.087151;-0.059082;0.302979;0.957031
60.175686;-0.061768;0.299072;0.958740
60.175972;-0.059082;0.302002;0.955566
60.176208;-0.058105;0.302002;0.955566
60.176437;-0.060791;0.303955;0.959717
60.355671;-0.058838;0.302490;0.956543
60.355965;-0.058838;0.302246;0.956543
60.356201;-0.059082;0.302734;0.956543
60.356426;-0.059814;0.305176;0.957764
60.446259;-0.059570;0.304199;0.956543
60.446510;-0.060791;0.302490;0.957031
60.446743;-0.059326;0.304199;0.956543
60.446972;-0.059082;0.303467;0.955566
60.986572;-0.060059;0.301758;0.957275
60.986893;-0.059570;0.303955;0.955322
60.987698;-0.060791;0.305908;0.959229
60.987934;-0.058838;0.302979;0.955322
60.999146;-0.059570;0.304932;0.956787
60.999393;-0.061768;0.303711;0.957275
60.999626;-0.056885;0.303711;0.955566
61.000240;-0.060791;0.301270;0.956787
61.075813;-0.059570;0.305176;0.959717
61.076115;-0.058350;0.303711;0.954346
61.076355;-0.060547;0.302979;0.958984
61.076710;-0.060059;0.302979;0.954346
61.170818;-0.059326;0.303711;0.956543
61.171192;-0.060791;0.302002;0.957031
61.171440;-0.061279;0.303223;0.958252
61.171673;-0.059082;0.301270;0.954590
61.173355;-0.059082;0.299805;0.962402
61.173584;-0.057861;0.301025;0.955566
61.173809;-0.061035;0.301514;0.956543
61.174030;-0.060791;0.301270;0.957764
61.256371;-0.061035;0.299805;0.957520
61.256664;-0.059814;0.300293;0.958008
61.256905;-0.060303;0.300781;0.959229
61.257133;-0.062500;0.299316;0.957275
61.345623;-0.062500;0.298584;0.958252
61.345905;-0.061768;0.300049;0.957520
61.346142;-0.062500;0.299072;0.957764
61.346455;-0.062012;0.300537;0.958984
61.525879;-0.060791;0.299561;0.959717
61.526161;-0.060791;0.298828;0.960449
61.526516;-0.061523;0.298828;0.958740
61.526749;-0.062012;0.299072;0.960693
61.615807;-0.061279;0.299072;0.959717
61.616108;-0.059570;0.302002;0.957275
61.616344;-0.064453;0.296143;0.958496
61.616577;-0.060547;0.300537;0.959717
61.706310;-0.061523;0.298340;0.958740
61.706577;-0.061523;0.295654;0.961426
61.706810;-0.058838;0.301270;0.955322
61.707039;-0.061279;0.301758;0.956543
62.245880;-0.060303;0.296143;0.957275
62.246181;-0.061035;0.299805;0.958496
62.246544;-0.062012;0.299561;0.958008
62.246777;-0.062988;0.294922;0.958740
62.248871;-0.061279;0.300049;0.960205
62.249104;-0.062012;0.298096;0.959229
62.249329;-0.061523;0.296143;0.960205
62.249554;-0.061523;0.297852;0.958496
62.336674;-0.063232;0.297119;0.958008
62.336922;-0.059326;0.297119;0.960205
62.337250;-0.062012;0.298096;0.958984
62.337482;-0.061768;0.298584;0.959717
62.425674;-0.062744;0.296143;0.958984
62.426086;-0.060303;0.297607;0.959961
62.426449;-0.062500;0.297607;0.959717
62.426682;-0.061523;0.294922;0.957275
62.428684;-0.062744;0.294678;0.958008
62.428921;-0.061279;0.297852;0.959961
62.429146;-0.062012;0.297607;0.959473
62.429371;-0.061768;0.296631;0.958740
62.516727;-0.061523;0.296631;0.958740
62.516983;-0.062988;0.294922;0.957764
62.517220;-0.062012;0.296143;0.958008
62.517445;-0.061523;0.300293;0.960449
62.609364;-0.061035;0.295166;0.959961
62.609642;-0.060791;0.297119;0.958252
62.609882;-0.062012;0.294189;0.958984
62.610115;-0.061768;0.298340;0.959717
62.786266;-0.062744;0.292969;0.958252
62.786564;-0.061768;0.298096;0.963867
62.786800;-0.062256;0.296875;0.958008
62.787029;-0.062744;0.294678;0.957275
62.876377;-0.059814;0.298584;0.961670
62.876625;-0.062500;0.296631;0.958740
62.876858;-0.061523;0.295654;0.954834
62.877083;-0.061279;0.298340;0.961182
62.965584;-0.063232;0.296143;0.958496
62.965862;-0.062012;0.293457;0.957275
62.966099;-0.058594;0.301270;0.962646
62.966328;-0.061279;0.294434;0.952881
63.145634;-0.061035;0.297119;0.960938
63.145916;-0.063965;0.299561;0.959229
63.146152;-0.060547;0.297119;0.959717
63.146378;-0.062012;0.297852;0.958740
63.235889;-0.062012;0.297363;0.960205
63.236176;-0.061523;0.298096;0.959229
63.236416;-0.061523;0.296631;0.957520
63.236645;-0.061523;0.297852;0.958984
63.416153;-0.062256;0.298340;0.959229
63.416458;-0.059570;0.296875;0.958740
63.416695;-0.060791;0.296387;0.958008
63.416924;-0.061035;0.299805;0.960205
63.506252;-0.061523;0.298584;0.958008
63.506615;-0.062256;0.298340;0.958252
63.506855;-0.062012;0.299561;0.958984
63.507084;-0.062744;0.297607;0.958252
63.595886;-0.060791;0.299561;0.958008
63.596184;-0.061035;0.299561;0.960693
63.596428;-0.061279;0.298096;0.958008
63.596657;-0.060547;0.304199;0.960205
63.775558;-0.061768;0.298584;0.958008
63.775845;-0.061523;0.301270;0.957764
63.776081;-0.060791;0.301025;0.958252
63.776310;-0.061523;0.295166;0.955566
63.866375;-0.060303;0.300781;0.961426
63.866631;-0.060303;0.300781;0.956299
63.866859;-0.061035;0.301514;0.959473
63.867088;-0.062500;0.300293;0.959229
64.405914;-0.060303;0.300537;0.957520
64.406235;-0.062500;0.299072;0.957275
64.406761;-0.061768;0.299316;0.959473
64.406998;-0.059326;0.301758;0.956299
64.408966;-0.062500;0.300293;0.960205
64.409203;-0.062744;0.297119;0.959229
64.409424;-0.060059;0.300293;0.956543
64.409653;-0.062256;0.301270;0.959473
64.497604;-0.061768;0.298828;0.959961
64.497864;-0.059570;0.300293;0.959473
64.498093;-0.062744;0.297363;0.957031
64.498322;-0.063477;0.299316;0.958252
64.498726;-0.061523;0.299561;0.958984
64.498955;-0.061279;0.301514;0.960938
64.499184;-0.060059;0.296631;0.954346
64.499405;-0.061035;0.300537;0.959717
64.586884;-0.059082;0.299072;0.962402
64.587135;-0.060547;0.296875;0.956787
64.587364;-0.060547;0.299561;0.961426
64.587631;-0.063232;0.296631;0.958252
64.676025;-0.061035;0.298340;0.960693
64.676323;-0.061035;0.297607;0.958496
64.676559;-0.061768;0.298828;0.960449
64.676788;-0.062744;0.293945;0.958252
64.766190;-0.062500;0.299561;0.959473
64.766479;-0.061768;0.296631;0.959961
64.766716;-0.058594;0.293457;0.956787
64.766945;-0.061279;0.298340;0.962158
64.856453;-0.059570;0.296631;0.959229
64.856705;-0.062500;0.295166;0.957520
64.856934;-0.060059;0.299072;0.965088
64.857162;-0.060547;0.298584;0.956055
65.395790;-0.061768;0.295166;0.959961
65.396095;-0.060547;0.299072;0.960205
65.396324;-0.060547;0.296143;0.959473
65.396683;-0.062988;0.294922;0.958740
65.491898;-0.063232;0.295898;0.959717
65.492149;-0.059814;0.295166;0.954590
65.492371;-0.062500;0.296875;0.960693
65.492447;-0.060547;0.298340;0.963379
65.575531;-0.063232;0.293945;0.953857
65.576111;-0.059570;0.300781;0.964600
65.576363;-0.060059;0.291992;0.956055
65.576591;-0.060303;0.295410;0.955811
65.665741;-0.060059;0.298340;0.960938
65.666023;-0.062500;0.293457;0.957275
65.666267;-0.059326;0.296143;0.959229
65.666489;-0.061523;0.297119;0.960205
65.756187;-0.061523;0.295898;0.955566
65.756615;-0.062500;0.294434;0.958008
65.756851;-0.061523;0.296631;0.959473
65.757080;-0.062256;0.294434;0.958252
65.757660;-0.061768;0.295654;0.958984
65.757904;-0.060791;0.295410;0.956787
65.758125;-0.061523;0.297363;0.959961
65.758354;-0.062012;0.295898;0.957764
65.845299;-0.061035;0.295410;0.957275
65.845581;-0.060303;0.294189;0.958008
65.845818;-0.062256;0.295898;0.959961
65.846046;-0.062012;0.297119;0.958252
65.935722;-0.062744;0.294434;0.957764
65.936005;-0.062256;0.296875;0.961182
65.936241;-0.062256;0.299561;0.959473
65.936462;-0.063232;0.293213;0.958984
66.026070;-0.060059;0.297607;0.962402
66.026367;-0.058594;0.300049;0.955566
66.026604;-0.062500;0.296387;0.958496
66.026833;-0.059326;0.298340;0.961914
66.205994;-0.060547;0.296387;0.955811
66.206276;-0.061523;0.296143;0.958252
66.206512;-0.063477;0.296143;0.958740
66.206741;-0.062012;0.295898;0.957031
66.295654;-0.061035;0.298828;0.960693
66.295944;-0.061523;0.297607;0.959961
66.296181;-0.060791;0.296387;0.953369
66.296410;-0.060547;0.298096;0.961182
66.385658;-0.061035;0.299561;0.959229
66.385941;-0.060547;0.299072;0.959473
66.386177;-0.062256;0.299805;0.959717
66.386543;-0.060547;0.301270;0.957764
66.565887;-0.062988;0.300293;0.959229
66.566193;-0.062256;0.298096;0.958984
66.566429;-0.060791;0.302490;0.957031
66.566658;-0.063477;0.298828;0.960205
66.656357;-0.061523;0.298584;0.958496
66.656609;-0.060791;0.302490;0.958252
66.656837;-0.060303;0.301025;0.959717
66.657066;-0.060303;0.302734;0.955566
67.195831;-0.061279;0.302002;0.957520
67.196152;-0.061768;0.299805;0.959229
67.196388;-0.059570;0.301758;0.958252
67.196732;-0.061035;0.303711;0.958008
67.285698;-0.061523;0.300781;0.958252
67.286140;-0.058594;0.300537;0.956787
67.286507;-0.060791;0.303711;0.955078
67.286743;-0.059570;0.299316;0.957520
67.287224;-0.062012;0.299072;0.959229
67.287453;-0.059814;0.303223;0.955811
67.287682;-0.059082;0.302002;0.954834
67.287903;-0.062500;0.300537;0.959229
67.376137;-0.059814;0.302734;0.956299
67.376778;-0.060303;0.300537;0.957520
67.377022;-0.064453;0.297852;0.957764
67.377838;-0.060303;0.302734;0.955811
67.379044;-0.059082;0.299561;0.957275
67.379280;-0.060303;0.299805;0.962891
67.379509;-0.062012;0.298828;0.957764
67.379730;-0.060547;0.300049;0.958740
67.465630;-0.063477;0.298096;0.958740
67.465919;-0.062988;0.299561;0.959717
67.466156;-0.063477;0.298828;0.959717
67.466393;-0.062256;0.299072;0.960205
67.556000;-0.062256;0.296387;0.958496
67.556297;-0.062500;0.297607;0.958252
67.556534;-0.061279;0.298096;0.958984
67.556755;-0.062256;0.298096;0.959473
67.646713;-0.062256;0.296875;0.959717
67.646957;-0.060791;0.296875;0.958740
67.647194;-0.061523;0.299316;0.960938
67.647415;-0.062256;0.297363;0.959961
68.186325;-0.060791;0.295654;0.956543
68.187019;-0.060303;0.298828;0.962646
68.187256;-0.060547;0.297119;0.958984
68.187485;-0.062744;0.295898;0.958984
68.188766;-0.064697;0.294922;0.958740
68.189003;-0.062500;0.293945;0.958252
68.189224;-0.060059;0.296631;0.956787
68.189445;-0.061279;0.297119;0.961182
68.276939;-0.062744;0.295410;0.958496
68.277229;-0.063721;0.295410;0.958984
68.277466;-0.060059;0.296143;0.957520
68.277695;-0.062256;0.294678;0.958008
68.369049;-0.061523;0.296387;0.958252
68.369324;-0.060303;0.297607;0.960938
68.369560;-0.063477;0.294678;0.958496
68.369789;-0.062256;0.293213;0.957520
68.371910;-0.059814;0.294678;0.958984
68.372139;-0.061035;0.294678;0.955322
68.372368;-0.062500;0.294922;0.957764
68.372589;-0.060547;0.298584;0.961182
68.456345;-0.062012;0.294678;0.957764
68.456650;-0.062988;0.296143;0.958496
68.456886;-0.060547;0.298096;0.961426
68.457115;-0.061035;0.296875;0.960938
68.546150;-0.060059;0.295166;0.958008
68.546432;-0.063232;0.291992;0.958984
68.546669;-0.063477;0.294678;0.957031
68.546898;-0.061768;0.300537;0.967285
68.725708;-0.061279;0.290771;0.959473
68.726013;-0.061035;0.300781;0.959961
68.726250;-0.063965;0.292236;0.957031
68.726471;-0.061523;0.294434;0.957275
68.815941;-0.061279;0.297363;0.961182
68.816223;-0.060791;0.294434;0.955566
68.816460;-0.064941;0.295166;0.959229
68.816681;-0.061035;0.297363;0.958496
68.905876;-0.059814;0.295898;0.956055
68.906158;-0.060547;0.296875;0.962646
68.906395;-0.059570;0.299561;0.957275
68.906624;-0.062256;0.297607;0.958740
69.085831;-0.057617;0.301025;0.962891
69.086121;-0.058594;0.302490;0.956543
69.086357;-0.062256;0.298340;0.959473
69.086578;-0.059082;0.299072;0.962402
69.175659;-0.063232;0.297852;0.957275
69.175941;-0.062012;0.296631;0.956299
69.176170;-0.060303;0.297119;0.959473
69.176399;-0.062012;0.299316;0.958008
69.266563;-0.060791;0.297852;0.960938
69.266830;-0.062744;0.300049;0.958740
69.267067;-0.062256;0.298584;0.958496
69.267288;-0.062744;0.301514;0.958496
69.805962;-0.062988;0.296387;0.958008
69.806259;-0.060303;0.300049;0.960938
69.806625;-0.061035;0.299072;0.959229
69.806854;-0.062500;0.296387;0.958252
69.808960;-0.062256;0.297852;0.959473
69.809189;-0.062988;0.300049;0.959229
69.809418;-0.062500;0.294434;0.957764
69.809639;-0.061279;0.300293;0.960693
69.896713;-0.062012;0.300781;0.958252
69.896965;-0.060303;0.296387;0.958252
69.897194;-0.062500;0.296631;0.959229
69.897423;-0.062988;0.299805;0.958740
69.986214;-0.060547;0.293945;0.957031
69.986626;-0.065918;0.293457;0.960205
69.986862;-0.062500;0.300049;0.960205
69.987213;-0.063477;0.296631;0.958984
69.988724;-0.064941;0.294189;0.960938
69.988976;-0.060059;0.296387;0.957520
69.989204;-0.061768;0.298584;0.961426
69.989426;-0.064697;0.294189;0.957520
70.075676;-0.061035;0.296631;0.959229
70.075958;-0.061768;0.298340;0.960449
70.076195;-0.061523;0.295410;0.960938
70.076416;-0.061279;0.296387;0.957031
70.165657;-0.061523;0.298584;0.961182
70.165939;-0.063232;0.292236;0.960449
70.166168;-0.061523;0.296387;0.958008
70.166519;-0.062988;0.294922;0.958252
70.345886;-0.062500;0.292480;0.958252
70.346199;-0.061035;0.298096;0.960449
70.346436;-0.062012;0.295654;0.958252
70.346664;-0.062988;0.292725;0.958496
70.436562;-0.060547;0.296631;0.959229
70.436806;-0.062500;0.292725;0.958008
70.437035;-0.062988;0.293213;0.958984
70.437263;-0.062256;0.293701;0.958252
70.616112;-0.060791;0.296631;0.961182
70.616409;-0.062744;0.294189;0.958984
70.616646;-0.062500;0.292725;0.959717
70.616875;-0.061523;0.297119;0.960449
70.705673;-0.062988;0.293213;0.958984
70.705971;-0.064453;0.292725;0.960205
70.706207;-0.060547;0.296631;0.960693
70.706429;-0.061279;0.295410;0.953369
70.795944;-0.062744;0.293701;0.961670
70.796227;-0.060547;0.296631;0.957520
70.796463;-0.062012;0.294189;0.956787
70.796684;-0.063477;0.291748;0.960449
71.336494;-0.060791;0.297363;0.960693
71.336922;-0.063721;0.293945;0.958740
71.337158;-0.060791;0.293701;0.959717
71.337410;-0.063477;0.293457;0.958496
71.339073;-0.064941;0.293457;0.959229
71.339302;-0.063232;0.295654;0.958740
71.339531;-0.061768;0.295410;0.958740
71.339874;-0.061523;0.294189;0.959473
71.425873;-0.063232;0.291992;0.958008
71.426163;-0.061768;0.295410;0.961914
71.426392;-0.062988;0.294434;0.958984
71.426620;-0.062012;0.293945;0.960693
71.516777;-0.063232;0.292969;0.958496
71.517036;-0.063965;0.294434;0.959717
71.517387;-0.062500;0.293457;0.958984
71.517616;-0.062012;0.294922;0.958496
71.605774;-0.063477;0.295898;0.957031
71.606224;-0.060791;0.295654;0.958252
71.606461;-0.062744;0.294678;0.959717
71.606750;-0.062500;0.293457;0.958740
71.607231;-0.063965;0.294434;0.960205
71.607460;-0.060547;0.294678;0.957031
71.607681;-0.064209;0.292480;0.960693
71.607903;-0.061523;0.294434;0.962891
71.695770;-0.062500;0.295166;0.954346
71.696053;-0.062256;0.293945;0.963135
71.696289;-0.061768;0.295166;0.959229
71.696510;-0.060303;0.295654;0.956055
71.786034;-0.063477;0.292480;0.961182
71.786308;-0.061523;0.295166;0.959717
71.786545;-0.063232;0.296387;0.957520
71.786766;-0.061523;0.293701;0.959717
72.326019;-0.060303;0.294678;0.956299
72.326317;-0.063477;0.295654;0.958984
72.326668;-0.063232;0.296387;0.959229
72.326897;-0.060303;0.298340;0.960938
72.328812;-0.060303;0.296143;0.956299
72.329048;-0.062012;0.297607;0.959717
72.329269;-0.062744;0.297607;0.959961
72.329491;-0.061768;0.296387;0.958496
72.416420;-0.060791;0.296631;0.958740
72.416824;-0.063477;0.296387;0.958008
72.417191;-0.063232;0.298584;0.959229
72.417427;-0.062988;0.297852;0.959473
72.426140;-0.063721;0.297607;0.958984
72.426331;-0.062012;0.298584;0.960449
72.426476;-0.061523;0.299316;0.961426
72.427109;-0.061768;0.298584;0.960938
72.506660;-0.061768;0.300049;0.960449
72.506905;-0.058838;0.300293;0.955811
72.507133;-0.061279;0.299561;0.962646
72.507355;-0.059814;0.301270;0.957275
72.595963;-0.061035;0.294189;0.954346
72.596245;-0.059814;0.300049;0.963623
72.596481;-0.060059;0.303955;0.955566
72.596710;-0.062744;0.299805;0.958984
72.685730;-0.059814;0.302002;0.958740
72.686012;-0.060791;0.300049;0.958496
72.686249;-0.062012;0.300781;0.959717
72.686470;-0.063477;0.299072;0.959229
72.865700;-0.060303;0.300781;0.956299
72.865974;-0.060059;0.300781;0.962158
72.866211;-0.062500;0.298828;0.958740
72.866440;-0.063232;0.299316;0.958984
72.955627;-0.062988;0.297607;0.959717
72.955902;-0.061523;0.301514;0.958984
72.956139;-0.061768;0.297852;0.958252
72.956360;-0.062744;0.298584;0.960205
73.046616;-0.063721;0.299805;0.959473
73.046867;-0.060547;0.298340;0.960693
73.047096;-0.061279;0.299316;0.960449
73.047318;-0.063477;0.298584;0.959717
73.586105;-0.062988;0.297363;0.958740
73.586395;-0.062744;0.298584;0.960205
73.586639;-0.062012;0.298584;0.959717
73.586891;-0.060303;0.296387;0.957031
73.676010;-0.061035;0.298096;0.960205
73.676331;-0.063232;0.296143;0.958252
73.676689;-0.062256;0.295410;0.955811
73.676918;-0.064209;0.297607;0.958496
73.678825;-0.059814;0.297852;0.961670
73.679054;-0.063721;0.294678;0.958252
73.679276;-0.061523;0.298096;0.962158
73.679497;-0.060791;0.295654;0.954346
73.766296;-0.061523;0.296143;0.958984
73.767082;-0.062256;0.298096;0.959229
73.767403;-0.060547;0.297363;0.957764
73.767632;-0.062500;0.294189;0.957275
73.769363;-0.062256;0.296875;0.960693
73.769592;-0.063232;0.294678;0.958740
73.769821;-0.060303;0.297852;0.963135
73.770042;-0.062256;0.296631;0.958984
73.857002;-0.062988;0.295654;0.958984
73.857391;-0.061279;0.298584;0.960693
73.857620;-0.062012;0.295166;0.958496
73.857849;-0.061035;0.297607;0.959473
73.945663;-0.062988;0.298340;0.959473
73.945938;-0.063232;0.294189;0.958496
73.946175;-0.061279;0.294922;0.957764
73.946396;-0.060547;0.298584;0.959717
74.126030;-0.063232;0.294434;0.958496
74.126305;-0.061523;0.295898;0.959473
74.126541;-0.060303;0.297607;0.960449
74.126762;-0.061279;0.296143;0.958984
74.216881;-0.061279;0.295410;0.958008
74.217133;-0.061768;0.296631;0.961182
74.217361;-0.061279;0.295898;0.958496
74.217583;-0.061279;0.297363;0.960449
74.756355;-0.064941;0.294189;0.958984
74.757149;-0.060547;0.299316;0.961426
74.757385;-0.059570;0.294678;0.956787
74.757614;-0.060547;0.295654;0.962646
74.758865;-0.061768;0.295898;0.956787
74.759102;-0.064209;0.293945;0.956787
74.759323;-0.059326;0.296875;0.961182
74.759544;-0.063232;0.295410;0.957275
74.846039;-0.063965;0.295654;0.958496
74.846336;-0.062500;0.293213;0.958496
74.846695;-0.062256;0.298096;0.959961
74.846924;-0.063232;0.294678;0.958496
74.935081;-0.060791;0.297363;0.961182
74.935974;-0.062256;0.293701;0.956543
74.936226;-0.060059;0.296875;0.960449
74.936562;-0.060303;0.297119;0.960938
74.938293;-0.061768;0.296631;0.958984
74.938530;-0.060791;0.293945;0.956055
74.938751;-0.061768;0.297363;0.960938
74.938972;-0.061523;0.296143;0.959473
74.939636;-0.061279;0.295654;0.958496
74.939857;-0.063965;0.294434;0.959473
74.940079;-0.062012;0.294922;0.958008
74.940300;-0.062256;0.297119;0.960205
75.125900;-0.062500;0.294922;0.958496
75.126099;-0.060547;0.296387;0.959717
75.126175;-0.060791;0.297363;0.959473
75.126801;-0.061768;0.297119;0.960938
75.206726;-0.062744;0.297607;0.958740
75.206970;-0.061768;0.299316;0.959717
75.207199;-0.063477;0.293213;0.958252
75.207420;-0.059570;0.300049;0.962646
75.746445;-0.059814;0.296631;0.955566
75.746880;-0.061768;0.295410;0.963379
75.747124;-0.061035;0.298340;0.960205
75.747345;-0.060791;0.297119;0.955566
75.748993;-0.061035;0.298584;0.961182
75.749229;-0.060303;0.297119;0.957031
75.749451;-0.061768;0.298828;0.960693
75.749672;-0.063477;0.293701;0.957275
75.836098;-0.059326;0.300293;0.961182
75.836380;-0.062988;0.299072;0.958740
75.836617;-0.060791;0.296631;0.958496
75.836845;-0.061768;0.297119;0.956787
75.926216;-0.062256;0.298096;0.958740
75.926765;-0.062744;0.300293;0.961182
75.927002;-0.061279;0.298584;0.958984
75.927231;-0.060547;0.300293;0.957520
75.928703;-0.062256;0.298096;0.959473
75.928955;-0.060791;0.298828;0.958740
75.929176;-0.060059;0.301025;0.959473
75.929398;-0.062988;0.296875;0.958252
76.015923;-0.062500;0.298828;0.957764
76.016289;-0.062256;0.300049;0.959473
76.016525;-0.062744;0.300293;0.959229
76.016754;-0.061768;0.299561;0.958740
76.105904;-0.061523;0.299072;0.958252
76.106194;-0.061035;0.302002;0.957764
76.106430;-0.061523;0.298828;0.958252
76.106651;-0.060547;0.300293;0.958252
76.285934;-0.064453;0.296387;0.958740
76.286308;-0.061035;0.299316;0.958740
76.286583;-0.060547;0.297607;0.958008
76.286812;-0.063232;0.300049;0.960938
76.376007;-0.061035;0.300049;0.958740
76.376282;-0.062744;0.298584;0.957520
76.376518;-0.061279;0.298584;0.960205
76.376747;-0.062012;0.299072;0.958252
76.465790;-0.061768;0.295410;0.958008
76.466072;-0.062988;0.296631;0.958496
76.466301;-0.061768;0.298584;0.957764
76.466530;-0.062256;0.296143;0.958984
77.006805;-0.060547;0.297119;0.959473
77.007057;-0.063965;0.298340;0.958008
77.007286;-0.062988;0.295410;0.957520
77.007515;-0.062256;0.298584;0.960938
77.095963;-0.061279;0.299072;0.961182
77.096252;-0.060547;0.297607;0.961182
77.096489;-0.062744;0.295654;0.958496
77.096970;-0.061768;0.298096;0.959473
77.185616;-0.061035;0.295898;0.958496
77.185905;-0.061523;0.297363;0.960693
77.186142;-0.062500;0.295898;0.958252
77.186432;-0.062744;0.295410;0.958252
77.275864;-0.061035;0.296875;0.960205
77.276176;-0.062012;0.296875;0.958984
77.276840;-0.061035;0.296875;0.958008
77.277077;-0.059814;0.297363;0.960449
77.278709;-0.063232;0.295654;0.958984
77.278938;-0.060547;0.296875;0.960449
77.279167;-0.062744;0.294678;0.958496
77.279388;-0.062744;0.297119;0.960693
77.365295;-0.060059;0.296387;0.954834
77.365593;-0.062256;0.297119;0.961914
77.365829;-0.061768;0.295410;0.958496
77.366455;-0.063965;0.298096;0.956299
77.367241;-0.060059;0.296631;0.960938
77.367470;-0.060791;0.296143;0.957031
77.367699;-0.062256;0.294922;0.958984
77.367920;-0.061768;0.292969;0.958008
77.455803;-0.060791;0.297363;0.960205
77.456100;-0.061035;0.293945;0.957520
77.456337;-0.061768;0.294922;0.960205
77.456558;-0.062988;0.295410;0.956543
77.997314;-0.062500;0.295898;0.958252
77.997566;-0.061523;0.296631;0.958984
77.997795;-0.059814;0.298828;0.961914
77.998024;-0.061523;0.294922;0.957275
77.998711;-0.063965;0.296143;0.958984
77.998940;-0.062744;0.295166;0.958008
77.999168;-0.062012;0.294922;0.958496
77.999390;-0.062744;0.294678;0.959961
78.086731;-0.061768;0.292969;0.957764
78.087021;-0.061523;0.298096;0.960205
78.087654;-0.062500;0.293213;0.957764
78.087891;-0.062012;0.295654;0.958496
78.096588;-0.063477;0.294434;0.959229
78.097298;-0.061279;0.295898;0.957275
78.097542;-0.063232;0.294922;0.958252
78.097855;-0.061768;0.296387;0.959229
78.176025;-0.063721;0.293701;0.959717
78.176323;-0.062500;0.290283;0.957275
78.176559;-0.061523;0.298584;0.962158
78.176788;-0.059570;0.293945;0.956055
78.265823;-0.063477;0.294189;0.962402
78.266106;-0.061035;0.295654;0.964355
78.266342;-0.061523;0.295410;0.953369
78.266571;-0.060791;0.297363;0.963135
78.356026;-0.059570;0.296875;0.957520
78.356300;-0.062500;0.294678;0.957275
78.356537;-0.062744;0.292725;0.957275
78.356766;-0.060547;0.296631;0.960205
78.895973;-0.062988;0.294189;0.957031
78.896263;-0.061523;0.294922;0.958496
78.896500;-0.061523;0.297363;0.956543
78.897148;-0.059570;0.298828;0.961914
78.985222;-0.062012;0.294434;0.956055
78.985664;-0.060303;0.299805;0.961182
78.985901;-0.063232;0.296387;0.958740
78.986122;-0.061035;0.295166;0.959229
78.987091;-0.061768;0.297119;0.959961
78.987328;-0.062500;0.296143;0.957764
78.987549;-0.060547;0.297852;0.961670
78.987770;-0.060791;0.297119;0.955811
79.085495;-0.061768;0.297607;0.959961
79.086151;-0.062744;0.295410;0.958496
79.086243;-0.063232;0.297119;0.958008
79.086319;-0.062744;0.298340;0.960205
79.165863;-0.060303;0.297607;0.960205
79.166321;-0.062744;0.297119;0.958496
79.166557;-0.061768;0.298096;0.958984
79.166786;-0.062256;0.299561;0.959473
79.167274;-0.061523;0.298096;0.959229
79.167503;-0.060059;0.298584;0.956543
79.167725;-0.062744;0.299316;0.958008
79.167946;-0.059326;0.300537;0.957275
79.256050;-0.061768;0.298828;0.962402
79.256332;-0.060303;0.302734;0.958740
79.256569;-0.059814;0.300293;0.957275
79.256798;-0.061279;0.301270;0.958984
79.796097;-0.060303;0.301758;0.957031
79.796410;-0.060303;0.300293;0.957031
79.796684;-0.062988;0.298828;0.958252
79.796997;-0.059814;0.302734;0.956787
79.798920;-0.061523;0.298340;0.956787
79.799149;-0.059570;0.302246;0.959717
79.799377;-0.061523;0.299805;0.957031
79.799599;-0.061035;0.299316;0.958252
79.886681;-0.062988;0.300049;0.959229
79.886948;-0.060547;0.300293;0.958984
79.887177;-0.060547;0.300293;0.957520
79.887405;-0.061523;0.300049;0.960205
79.976875;-0.063721;0.297852;0.958008
79.977158;-0.060791;0.299072;0.957764
79.977524;-0.062744;0.300537;0.959717
79.977760;-0.062012;0.295410;0.956299
79.987000;-0.062012;0.299072;0.959229
79.987236;-0.060547;0.301514;0.962158
79.987900;-0.061035;0.295898;0.954346
79.988136;-0.061279;0.301025;0.961182
80.066849;-0.061768;0.298828;0.957520
80.067101;-0.060303;0.298584;0.960205
80.067329;-0.063232;0.296875;0.957275
80.067558;-0.063965;0.297852;0.959473
80.156433;-0.062012;0.298340;0.958740
80.156761;-0.060547;0.296143;0.957031
80.156998;-0.062012;0.296631;0.960205
80.157219;-0.062012;0.297119;0.958496
80.245834;-0.062988;0.298340;0.957520
80.246117;-0.061768;0.297363;0.960205
80.246346;-0.062988;0.299561;0.958984
80.246567;-0.061768;0.294922;0.955811
80.787247;-0.059814;0.296631;0.961182
80.787498;-0.061523;0.294922;0.954590
80.787727;-0.060791;0.297119;0.960938
80.787949;-0.061035;0.295898;0.957520
80.875206;-0.062256;0.295898;0.956787
80.875504;-0.060791;0.295654;0.958740
80.875961;-0.060791;0.296143;0.958740
80.876190;-0.062744;0.295410;0.958496
80.965714;-0.062012;0.297607;0.959229
80.966133;-0.063721;0.295410;0.959717
80.966385;-0.061035;0.296387;0.958740
80.966614;-0.061523;0.296143;0.957764
80.967094;-0.062988;0.294922;0.958984
80.967323;-0.062012;0.293701;0.957520
80.967545;-0.060791;0.298340;0.961914
80.967766;-0.061523;0.295410;0.957275
81.064148;-0.061523;0.294434;0.956787
81.064438;-0.062256;0.297363;0.959229
81.064674;-0.061035;0.296631;0.959961
81.065865;-0.059326;0.298340;0.962402
81.067284;-0.061279;0.295410;0.954346
81.067513;-0.062256;0.294922;0.958740
81.068222;-0.060791;0.296875;0.957520
81.068466;-0.065674;0.293945;0.958740
81.146309;-0.060059;0.295654;0.959473
81.146606;-0.062256;0.296631;0.955811
81.146843;-0.063232;0.295898;0.959717
81.147064;-0.060547;0.295410;0.955566
81.686150;-0.060791;0.297852;0.961182
81.686546;-0.063965;0.294189;0.958984
81.687309;-0.060059;0.297119;0.960449
81.687546;-0.062012;0.294434;0.956543
81.689079;-0.061768;0.296631;0.960938
81.689316;-0.060303;0.295898;0.955078
81.689545;-0.062500;0.297607;0.959961
81.689766;-0.061035;0.297119;0.960205
81.776108;-0.061768;0.298096;0.959961
81.776390;-0.062256;0.295654;0.958008
81.776619;-0.062988;0.292480;0.958984
81.777031;-0.062500;0.296631;0.958496
81.865715;-0.061279;0.296387;0.959229
81.866127;-0.062744;0.294434;0.958740
81.866371;-0.062256;0.296631;0.958252
81.866730;-0.062500;0.294434;0.957764
81.877937;-0.062012;0.295410;0.958740
81.878189;-0.061768;0.296143;0.958740
81.878960;-0.060791;0.295654;0.958984
81.879196;-0.061523;0.295654;0.957275
81.956306;-0.063477;0.295654;0.960449
81.956627;-0.062256;0.297363;0.959229
81.956863;-0.061523;0.297363;0.961670
81.957092;-0.061279;0.293213;0.957031
82.045967;-0.061768;0.296387;0.960205
82.046242;-0.059082;0.298828;0.960938
82.046478;-0.066162;0.292236;0.960205
82.046745;-0.057861;0.298096;0.962402
82.135849;-0.062012;0.297363;0.955322
82.136131;-0.060547;0.296631;0.961426
82.136360;-0.061768;0.296631;0.960205
82.136589;-0.063232;0.296387;0.958496
82.316048;-0.063721;0.294678;0.959717
82.316330;-0.062012;0.298828;0.960449
82.316566;-0.061035;0.296387;0.956299
82.316795;-0.062012;0.296387;0.960449
82.406593;-0.060547;0.297119;0.956543
82.406845;-0.061768;0.297363;0.957520
82.407082;-0.060303;0.297607;0.961182
82.407303;-0.059814;0.298096;0.959961
82.946274;-0.060303;0.298096;0.960205
82.946571;-0.062256;0.298096;0.959229
82.947273;-0.062256;0.296143;0.958252
82.947510;-0.060547;0.301025;0.959717
82.949059;-0.061279;0.296875;0.959229
82.949287;-0.061279;0.299316;0.959229
82.949516;-0.062256;0.297852;0.958496
82.949738;-0.062012;0.297119;0.958252
83.125961;-0.059326;0.300537;0.961426
83.126289;-0.060547;0.297363;0.957031
83.126526;-0.061279;0.296875;0.958496
83.126862;-0.062256;0.298340;0.959717
83.127792;-0.061279;0.301758;0.959717
83.128029;-0.061768;0.300293;0.958252
83.128258;-0.062744;0.297119;0.959229
83.128479;-0.062500;0.302490;0.957275
83.129951;-0.062012;0.296631;0.957764
83.130180;-0.063477;0.298584;0.960693
83.130402;-0.061768;0.300537;0.958740
83.130630;-0.060547;0.301270;0.957031
83.216354;-0.061035;0.302246;0.959961
83.216644;-0.058838;0.302246;0.955811
83.216881;-0.061523;0.299805;0.958252
83.217110;-0.063721;0.298828;0.957520
83.306152;-0.060059;0.303711;0.955078
83.306465;-0.062256;0.300781;0.958740
83.306702;-0.061768;0.300781;0.958252
83.306931;-0.059570;0.301514;0.954834
83.485878;-0.062012;0.301270;0.958740
83.486160;-0.061523;0.301025;0.957520
83.486389;-0.059082;0.302246;0.955078
83.486618;-0.059814;0.302246;0.957275
83.576088;-0.062012;0.301514;0.955566
83.576370;-0.061035;0.300781;0.958496
83.576698;-0.059570;0.301514;0.956543
83.576927;-0.061035;0.301270;0.957275
83.666107;-0.060791;0.301514;0.957764
83.666527;-0.061279;0.300781;0.956299
83.666763;-0.060059;0.301025;0.956787
83.666992;-0.061768;0.299561;0.959717
83.845917;-0.061279;0.302002;0.958252
83.846207;-0.061768;0.299805;0.958496
83.846436;-0.061035;0.299316;0.959717
83.846664;-0.060547;0.302490;0.958252
83.936111;-0.060547;0.298340;0.957764
83.936394;-0.062256;0.296387;0.959473
83.936623;-0.061768;0.300049;0.959961
83.936852;-0.061035;0.300293;0.956787
84.026604;-0.061279;0.298584;0.959473
84.026932;-0.060303;0.299561;0.956787
84.027168;-0.062988;0.297852;0.958496
84.027397;-0.063232;0.297363;0.959229
84.567474;-0.062256;0.300537;0.958008
84.567719;-0.063721;0.295166;0.957031
84.568001;-0.059082;0.299072;0.961914
84.568230;-0.062744;0.296875;0.957031
84.655693;-0.061523;0.296875;0.958740
84.656128;-0.061768;0.299561;0.958252
84.656372;-0.062500;0.297607;0.959473
84.656700;-0.063477;0.296631;0.958740
84.658363;-0.063477;0.298828;0.959473
84.658592;-0.063232;0.294922;0.957764
84.658821;-0.060303;0.296631;0.956543
84.659042;-0.062256;0.298584;0.958008
84.659714;-0.061279;0.294922;0.958496
84.659943;-0.061523;0.296631;0.958252
84.660164;-0.062744;0.296875;0.958008
84.660385;-0.062256;0.294434;0.958496
84.755463;-0.062256;0.298584;0.959473
84.756172;-0.060059;0.296875;0.958984
84.756493;-0.061523;0.295166;0.956543
84.756729;-0.062256;0.295410;0.959717
84.836021;-0.061035;0.297852;0.959961
84.836311;-0.063477;0.294434;0.960205
84.836548;-0.061768;0.294922;0.960449
84.836777;-0.062012;0.297119;0.957764
84.925980;-0.060547;0.297852;0.962158
84.926254;-0.061279;0.294678;0.957764
84.926491;-0.061523;0.295410;0.957520
84.926720;-0.062744;0.295410;0.959229
85.105858;-0.063721;0.293945;0.959229
85.106155;-0.062012;0.294922;0.958252
85.106392;-0.062500;0.298584;0.960205
85.106621;-0.062744;0.294189;0.958740
85.196877;-0.061768;0.295654;0.957031
85.197121;-0.061279;0.296631;0.961182
85.197350;-0.060303;0.296143;0.958252
85.197578;-0.060791;0.296387;0.958984
85.737038;-0.061279;0.295410;0.957520
85.737846;-0.061035;0.297119;0.959229
85.738091;-0.061523;0.295898;0.959961
85.738319;-0.062256;0.295898;0.958496
85.739639;-0.062012;0.296875;0.959473
85.739952;-0.062744;0.295898;0.958740
85.740181;-0.060547;0.298096;0.959473
85.740410;-0.062988;0.293701;0.957520
85.827194;-0.061523;0.297119;0.959717
85.827560;-0.062256;0.295410;0.959229
85.827797;-0.060547;0.296143;0.960205
85.828018;-0.061523;0.296143;0.959961
85.828880;-0.060791;0.296875;0.959717
85.829117;-0.060791;0.294189;0.955078
85.829338;-0.062500;0.296631;0.960205
85.829559;-0.061279;0.296387;0.958740
85.915924;-0.062988;0.293701;0.959717
85.916336;-0.059570;0.296143;0.961670
85.916573;-0.061279;0.297363;0.956299
85.916801;-0.061279;0.296631;0.961426
85.918556;-0.061523;0.296875;0.958740
85.918808;-0.062256;0.296631;0.958008
85.919037;-0.063232;0.293945;0.958252
85.920303;-0.063232;0.294678;0.958252
86.095917;-0.062744;0.297119;0.958984
86.096199;-0.062256;0.294678;0.961182
86.096436;-0.059082;0.295166;0.956055
86.096657;-0.062012;0.296143;0.958008
86.187172;-0.062256;0.298096;0.959961
86.187492;-0.060059;0.297607;0.961182
86.187729;-0.061279;0.296631;0.959229
86.188049;-0.064941;0.294922;0.957764
86.726181;-0.062256;0.296387;0.959473
86.726479;-0.062256;0.297363;0.959961
86.726723;-0.062012;0.295654;0.958252
86.726944;-0.062012;0.296875;0.959473
86.816132;-0.062012;0.297363;0.959229
86.816429;-0.061768;0.297607;0.959961
86.816666;-0.061768;0.298828;0.959229
86.816895;-0.061768;0.297852;0.960205
86.906708;-0.061035;0.296387;0.957764
86.906975;-0.060059;0.298584;0.961670
86.907204;-0.061768;0.297363;0.958252
86.907433;-0.063721;0.295898;0.958496
86.997520;-0.061035;0.297119;0.958252
86.997795;-0.060547;0.297607;0.959473
86.998032;-0.062012;0.298340;0.958496
86.998344;-0.062500;0.295166;0.957031
87.085930;-0.061279;0.299561;0.958984
87.086349;-0.060303;0.297363;0.957275
87.086967;-0.061768;0.300293;0.962402
87.087204;-0.061768;0.298828;0.957764
87.087753;-0.061768;0.300049;0.957520
87.088097;-0.059082;0.302246;0.959961
87.088318;-0.062012;0.297119;0.956055
87.088539;-0.060547;0.299561;0.958984
87.175499;-0.063965;0.299316;0.958740
87.175797;-0.061523;0.302490;0.956299
87.176033;-0.059814;0.300781;0.956055
87.176254;-0.059570;0.300049;0.960205
87.265900;-0.058350;0.298584;0.955566
87.266174;-0.060791;0.302002;0.959717
87.266411;-0.060059;0.303711;0.955322
87.266640;-0.058594;0.302490;0.959473
87.356224;-0.058838;0.304932;0.954590
87.356506;-0.062256;0.299805;0.959229
87.356735;-0.061035;0.304199;0.957275
87.356964;-0.060059;0.302979;0.956543
87.453491;-0.060791;0.302490;0.956543
87.453766;-0.060547;0.304932;0.957031
87.454002;-0.058838;0.302979;0.955811
87.454231;-0.058350;0.302490;0.955078
87.626595;-0.059082;0.308350;0.957031
87.626900;-0.059814;0.301025;0.956055
87.627129;-0.058838;0.305664;0.960205
87.627357;-0.057617;0.306396;0.960938
87.716187;-0.061035;0.302490;0.953613
87.716492;-0.058350;0.303467;0.956787
87.716728;-0.056396;0.303711;0.954346
87.716988;-0.059082;0.306641;0.958984
87.806007;-0.061768;0.305176;0.956787
87.806290;-0.059082;0.304688;0.955322
87.806519;-0.060791;0.304932;0.958008
87.806747;-0.062256;0.306152;0.958496
88.347061;-0.057373;0.306641;0.955566
88.347313;-0.058594;0.304932;0.955078
88.347542;-0.058105;0.311523;0.955566
88.347771;-0.056641;0.306152;0.956543
88.435349;-0.059814;0.305420;0.955566
88.435760;-0.059814;0.311523;0.955811
88.436455;-0.060547;0.306885;0.957275
88.436813;-0.059814;0.307129;0.959229
88.438492;-0.057373;0.306396;0.955078
88.438728;-0.057861;0.308838;0.956055
88.438950;-0.055176;0.316650;0.956299
88.439178;-0.063477;0.302979;0.952393
88.439972;-0.056885;0.312012;0.951904
88.440201;-0.055664;0.308105;0.955566
88.440422;-0.059814;0.307129;0.957031
88.440643;-0.058594;0.311523;0.952637
88.537636;-0.057861;0.306641;0.955322
88.538162;-0.058838;0.307129;0.956299
88.538399;-0.058594;0.308594;0.955322
88.538628;-0.060059;0.309570;0.956299
88.616760;-0.057373;0.306885;0.955078
88.617065;-0.057617;0.308838;0.955566
88.617302;-0.059814;0.307861;0.958252
88.617531;-0.056641;0.308105;0.956055
88.706032;-0.058594;0.309570;0.956543
88.706367;-0.058105;0.307617;0.954346
88.706604;-0.056641;0.304688;0.955078
88.706825;-0.059082;0.309082;0.955078
88.885941;-0.058105;0.307373;0.957275
88.886223;-0.059082;0.306641;0.954102
88.886459;-0.057617;0.308350;0.956299
88.886681;-0.058350;0.305664;0.955322
88.977249;-0.056152;0.303955;0.955322
88.977501;-0.060547;0.307617;0.957764
88.977730;-0.057861;0.308105;0.954834
88.977959;-0.058838;0.303223;0.954834
89.156296;-0.059814;0.307861;0.957764
89.156601;-0.058594;0.306641;0.954102
89.156868;-0.060059;0.307129;0.958984
89.157097;-0.058594;0.308594;0.957275
89.246109;-0.058105;0.306641;0.956543
89.246399;-0.061035;0.306396;0.958252
89.246628;-0.059814;0.307129;0.956787
89.246857;-0.060547;0.307373;0.958496
89.336601;-0.057617;0.304932;0.953369
89.336853;-0.061768;0.305420;0.958252
89.337082;-0.060059;0.305420;0.956787
89.337311;-0.058838;0.307129;0.957520
89.516502;-0.060059;0.307861;0.956787
89.516792;-0.060791;0.305664;0.958740
89.517036;-0.057373;0.305176;0.956299
89.517265;-0.060791;0.306396;0.957520
89.606216;-0.058594;0.305908;0.956055
89.606743;-0.059814;0.302246;0.954590
89.606979;-0.060303;0.306641;0.960693
89.607208;-0.059570;0.304199;0.955811
89.696579;-0.059814;0.306641;0.958008
89.696854;-0.059326;0.305908;0.956543
89.697090;-0.056885;0.302002;0.955811
89.697319;-0.061279;0.305176;0.957275
89.875931;-0.059570;0.304688;0.956543
89.876205;-0.058105;0.304443;0.956055
89.876495;-0.059814;0.304199;0.956299
89.876717;-0.060303;0.305908;0.960693
89.967209;-0.061035;0.302002;0.952637
89.967484;-0.060303;0.305908;0.958008
89.967712;-0.061279;0.304199;0.957520
89.967934;-0.058594;0.302490;0.956299
90.507507;-0.060303;0.305176;0.958252
90.507820;-0.059570;0.303223;0.956055
90.508064;-0.060303;0.304932;0.957275
90.508293;-0.059326;0.302734;0.955566
90.510246;-0.061035;0.303711;0.957031
90.510475;-0.059570;0.302490;0.955078
90.510696;-0.059814;0.302490;0.955322
90.510925;-0.060547;0.302979;0.958496
90.597168;-0.060791;0.303955;0.955322
90.597855;-0.059814;0.303467;0.955566
90.598099;-0.062256;0.300293;0.958496
90.598419;-0.060547;0.304688;0.957275
90.598877;-0.061523;0.297363;0.956055
90.599106;-0.062744;0.302734;0.959473
90.599327;-0.057129;0.301025;0.954834
90.599548;-0.060547;0.303955;0.958252
90.686050;-0.061035;0.301025;0.958252
90.686325;-0.059814;0.301270;0.955566
90.686562;-0.060059;0.301514;0.956787
90.686790;-0.060791;0.298584;0.957031
90.776184;-0.061279;0.304688;0.959717
90.776474;-0.059082;0.300781;0.955566
90.776711;-0.062744;0.298096;0.960938
90.776932;-0.060791;0.298584;0.956543
90.865952;-0.060059;0.300781;0.959473
90.866226;-0.062012;0.300049;0.958496
90.866463;-0.060059;0.302002;0.957520
90.866684;-0.060547;0.299072;0.958008
91.045906;-0.062256;0.298340;0.957764
91.046196;-0.062988;0.298340;0.959229
91.046432;-0.061035;0.298584;0.959229
91.046654;-0.062012;0.299316;0.959717
91.136475;-0.062256;0.296387;0.957031
91.136940;-0.060547;0.300781;0.959229
91.137703;-0.062500;0.298096;0.958008
91.137932;-0.061523;0.297363;0.959229
91.233948;-0.062744;0.299316;0.958984
91.234161;-0.062012;0.301514;0.960449
91.234787;-0.058594;0.296631;0.953369
91.235031;-0.062256;0.300049;0.960205
91.409622;-0.059326;0.301758;0.956787
91.409882;-0.062500;0.295898;0.955566
91.410126;-0.059570;0.299561;0.965088
91.410355;-0.061279;0.302002;0.953369
91.496208;-0.060547;0.299316;0.962402
91.496513;-0.062256;0.299072;0.958984
91.496750;-0.061523;0.299072;0.958008
91.496979;-0.062500;0.298096;0.959229
91.586800;-0.063721;0.292236;0.956787
91.587051;-0.060059;0.303955;0.956543
91.587288;-0.062500;0.295166;0.957031
91.587509;-0.059326;0.297852;0.961182
92.126938;-0.062256;0.299805;0.956787
92.127190;-0.062988;0.300049;0.959961
92.127419;-0.062988;0.299561;0.959473
92.127640;-0.061768;0.300537;0.958740
92.216568;-0.061768;0.296387;0.958008
92.217003;-0.062256;0.296143;0.958740
92.217239;-0.060791;0.297607;0.958008
92.217468;-0.061279;0.299316;0.959717
92.218971;-0.061035;0.295654;0.957764
92.219200;-0.063477;0.297607;0.958740
92.219429;-0.063721;0.299316;0.958496
92.219650;-0.061523;0.298584;0.960693
92.314514;-0.062744;0.297607;0.959717
92.315224;-0.062500;0.296631;0.956787
92.315475;-0.062012;0.300293;0.960693
92.315804;-0.062744;0.297852;0.958252
92.318153;-0.062744;0.298584;0.958496
92.318413;-0.063477;0.294189;0.957520
92.318634;-0.062256;0.301270;0.959961
92.318863;-0.058594;0.295166;0.954102
92.397156;-0.062012;0.298096;0.964111
92.397423;-0.059082;0.298096;0.956543
92.397652;-0.063477;0.298096;0.959961
92.397873;-0.061279;0.297852;0.961426
92.486053;-0.062744;0.297119;0.958984
92.486343;-0.064453;0.298096;0.958252
92.486580;-0.063721;0.294922;0.957275
92.486809;-0.059570;0.298828;0.961182
92.665932;-0.063232;0.297119;0.958984
92.666206;-0.061279;0.295654;0.958984
92.666443;-0.062256;0.295898;0.954102
92.666672;-0.060303;0.299316;0.962891
92.757408;-0.062744;0.298096;0.959473
92.757660;-0.059814;0.299316;0.962402
92.757896;-0.062744;0.297119;0.957520
92.758125;-0.062744;0.297363;0.959229
93.296570;-0.061279;0.296387;0.958740
93.296898;-0.062256;0.298340;0.959717
93.297134;-0.062500;0.297607;0.959473
93.297485;-0.061523;0.297119;0.959961
93.385559;-0.063721;0.296143;0.958984
93.385971;-0.062500;0.297852;0.959229
93.386215;-0.061768;0.298340;0.961182
93.386444;-0.062256;0.295654;0.957275
93.475388;-0.062256;0.299316;0.958252
93.475815;-0.062012;0.297363;0.958984
93.476051;-0.060547;0.298340;0.960449
93.476280;-0.062744;0.296143;0.957764
93.477066;-0.063721;0.296387;0.959229
93.477295;-0.059082;0.299316;0.960693
93.477524;-0.062012;0.294189;0.957275
93.477745;-0.060059;0.298096;0.963867
93.567558;-0.061768;0.297119;0.956543
93.567810;-0.064209;0.296875;0.958984
93.568047;-0.060059;0.298340;0.960938
93.568275;-0.062012;0.297119;0.958008
93.569267;-0.063721;0.295410;0.957764
93.569511;-0.061279;0.299072;0.962158
93.569740;-0.061523;0.294189;0.956787
93.569962;-0.062744;0.298584;0.959717
93.656029;-0.061768;0.295410;0.958008
93.656303;-0.062256;0.296143;0.956543
93.656540;-0.062500;0.296631;0.958984
93.656769;-0.061279;0.297852;0.960938
93.747215;-0.061035;0.296875;0.957520
93.747475;-0.062988;0.297852;0.959717
93.747704;-0.062012;0.294922;0.956055
93.747925;-0.061768;0.298828;0.958008
94.289330;-0.062988;0.296875;0.958740
94.289604;-0.061768;0.294434;0.957031
94.289841;-0.063232;0.298828;0.957764
94.290070;-0.063232;0.296875;0.959717
94.375351;-0.062012;0.296143;0.958008
94.375900;-0.061768;0.296143;0.957275
94.376595;-0.061035;0.297852;0.960938
94.376831;-0.063232;0.297852;0.958984
94.378334;-0.062500;0.298096;0.959717
94.378571;-0.061523;0.294922;0.956299
94.378792;-0.063477;0.297852;0.959961
94.379013;-0.061768;0.295898;0.958252
94.466057;-0.062988;0.295166;0.959473
94.466454;-0.060547;0.296143;0.959229
94.466690;-0.063965;0.296631;0.956787
94.467369;-0.061279;0.298096;0.961670
94.468819;-0.061523;0.297119;0.957764
94.469055;-0.062988;0.297119;0.958252
94.469276;-0.064209;0.293701;0.956787
94.469505;-0.061523;0.295654;0.954346
94.556320;-0.062500;0.298096;0.959717
94.556602;-0.061523;0.295410;0.960693
94.556839;-0.063721;0.297852;0.957031
94.557068;-0.061035;0.298828;0.960449
94.646049;-0.060303;0.299316;0.962891
94.646339;-0.060791;0.297852;0.960938
94.646576;-0.061035;0.297607;0.960938
94.646805;-0.061523;0.296387;0.959229
94.825974;-0.061035;0.297607;0.960449
94.826256;-0.062012;0.296631;0.958008
94.826492;-0.062988;0.297607;0.958252
94.826721;-0.062988;0.297119;0.959229
94.923767;-0.062500;0.296387;0.958252
94.924484;-0.062500;0.297607;0.959229
94.924690;-0.061768;0.299316;0.959961
94.925026;-0.061279;0.297363;0.959961
95.005814;-0.061279;0.299805;0.958252
95.005966;-0.063477;0.297119;0.958740
95.006081;-0.061035;0.300293;0.957764
95.006187;-0.061768;0.295410;0.956299
95.186081;-0.062256;0.298340;0.963379
95.186508;-0.060059;0.299805;0.958008
95.186745;-0.061279;0.299316;0.955811
95.186981;-0.062012;0.299561;0.959229
95.276314;-0.060303;0.301270;0.958008
95.276604;-0.062256;0.296143;0.957764
95.276840;-0.062256;0.301758;0.958496
95.277061;-0.059570;0.300537;0.956055
95.456085;-0.064697;0.300049;0.959717
95.456367;-0.060791;0.299561;0.956787
95.456604;-0.064209;0.300293;0.959717
95.456833;-0.061523;0.301514;0.957764
95.547295;-0.060303;0.302734;0.957520
95.547554;-0.059082;0.302734;0.955322
95.547783;-0.059326;0.302979;0.955322
95.548012;-0.060547;0.302002;0.956543
95.635971;-0.062012;0.301025;0.958252
95.636261;-0.058594;0.301758;0.956055
95.636505;-0.060303;0.303711;0.958496
95.636734;-0.058838;0.300049;0.955322
95.816238;-0.059570;0.305420;0.961426
95.816521;-0.059082;0.305420;0.957031
95.816757;-0.061523;0.298828;0.957764
95.816978;-0.058350;0.305420;0.956787
95.906616;-0.059814;0.301025;0.955811
95.906914;-0.059814;0.301758;0.957275
95.907150;-0.061035;0.309326;0.957275
95.907379;-0.060303;0.304199;0.955322
96.536148;-0.058350;0.303467;0.955566
96.536446;-0.061279;0.307617;0.958496
96.536682;-0.059814;0.301758;0.952393
96.537331;-0.062744;0.313721;0.959717
96.625298;-0.059082;0.302979;0.954590
96.625710;-0.060303;0.291992;0.946533
96.625992;-0.056152;0.316650;0.968506
96.626297;-0.063721;0.295166;0.943604
96.627510;-0.059570;0.303467;0.957520
96.627747;-0.059082;0.311279;0.956299
96.627968;-0.060303;0.301270;0.955078
96.628197;-0.057617;0.309814;0.962646
96.715363;-0.061279;0.304199;0.951904
96.715775;-0.058594;0.307129;0.961182
96.716011;-0.061768;0.302002;0.952393
96.716362;-0.059326;0.309082;0.957031
96.718208;-0.058838;0.305908;0.955566
96.718445;-0.059326;0.306396;0.961182
96.718666;-0.060547;0.305420;0.952637
96.718887;-0.059326;0.307373;0.960205
96.814690;-0.059082;0.304932;0.955811
96.815392;-0.059082;0.310547;0.956055
96.815651;-0.059082;0.306396;0.956543
96.815971;-0.060059;0.306396;0.959473
96.818336;-0.056885;0.306885;0.954346
96.818573;-0.061279;0.303467;0.956055
96.818794;-0.058350;0.308594;0.956055
96.819023;-0.058350;0.305908;0.954346
96.896988;-0.061035;0.307129;0.957520
96.897324;-0.059570;0.303223;0.955322
96.897552;-0.060303;0.308594;0.956055
96.897781;-0.061523;0.303467;0.956543
97.436790;-0.058350;0.308594;0.956055
97.437241;-0.059082;0.306152;0.956787
97.437477;-0.061279;0.307129;0.957764
97.437706;-0.059082;0.305664;0.956055
97.439468;-0.057861;0.306152;0.957031
97.439705;-0.062012;0.305420;0.957520
97.439934;-0.061279;0.304688;0.958008
97.440155;-0.058838;0.302734;0.953613
97.526711;-0.063477;0.306152;0.958740
97.527016;-0.059082;0.302490;0.953369
97.527252;-0.061035;0.304443;0.958008
97.527931;-0.062012;0.305420;0.958740
97.616302;-0.060303;0.303223;0.952637
97.616600;-0.061523;0.306152;0.959717
97.616959;-0.060303;0.305664;0.957520
97.617195;-0.060059;0.303467;0.955566
97.619263;-0.063721;0.301758;0.956299
97.619499;-0.062256;0.306641;0.958008
97.619728;-0.060547;0.303467;0.956787
97.619949;-0.059814;0.303223;0.957520
97.706329;-0.058105;0.300537;0.955811
97.706612;-0.060791;0.306396;0.961426
97.706848;-0.060547;0.301514;0.957764
97.707130;-0.060547;0.304199;0.957275
97.796059;-0.060303;0.302734;0.955566
97.796341;-0.060791;0.303467;0.955566
97.796577;-0.061523;0.302734;0.956543
97.796806;-0.060547;0.302246;0.956299
97.976074;-0.062012;0.302734;0.958008
97.976357;-0.061523;0.301025;0.957764
97.976593;-0.059326;0.300293;0.957275
97.976822;-0.062500;0.301270;0.957031
98.066566;-0.058838;0.302002;0.957275
98.066849;-0.061279;0.298096;0.958740
98.067116;-0.060303;0.301270;0.961670
98.067345;-0.059814;0.301514;0.955566
98.246025;-0.060303;0.301514;0.960693
98.246307;-0.059326;0.299805;0.957031
98.246544;-0.059814;0.299805;0.957275
98.246773;-0.062256;0.298584;0.960205
98.336243;-0.063721;0.297363;0.958252
98.336525;-0.061523;0.300781;0.957764
98.336761;-0.062500;0.299561;0.959961
98.336990;-0.061768;0.297363;0.958008
98.426460;-0.062256;0.298340;0.957764
98.426735;-0.060303;0.300049;0.961426
98.426971;-0.061279;0.299316;0.958984
98.427200;-0.061523;0.299805;0.959473
98.610603;-0.061768;0.298340;0.960205
98.610909;-0.063477;0.298340;0.958984
98.611160;-0.061768;0.296875;0.959473
98.611397;-0.061768;0.297607;0.959717
98.696350;-0.062744;0.296875;0.960449
98.696640;-0.062500;0.297119;0.957520
98.696877;-0.061523;0.296631;0.959473
98.697105;-0.062012;0.294434;0.957031
98.876610;-0.062256;0.300049;0.959961
98.876930;-0.062988;0.296875;0.959229
98.877251;-0.060547;0.295410;0.955322
98.877487;-0.062988;0.297363;0.958984
98.966011;-0.061279;0.294922;0.957275
98.966293;-0.063477;0.294678;0.960449
98.966667;-0.062012;0.297852;0.959717
98.966896;-0.063477;0.298584;0.958984
99.056114;-0.062012;0.295898;0.958740
99.056404;-0.061279;0.296387;0.957764
99.056641;-0.062012;0.295898;0.958008
99.056862;-0.063477;0.296387;0.960449
99.236038;-0.063232;0.295654;0.958740
99.236320;-0.062744;0.296631;0.958496
99.236557;-0.062744;0.294678;0.959717
99.236786;-0.060791;0.296143;0.959473
99.327156;-0.063232;0.296875;0.959473
99.327408;-0.061768;0.298096;0.961670
99.327637;-0.060547;0.298340;0.962402
99.327858;-0.061279;0.296387;0.958496
99.866615;-0.062988;0.296387;0.959473
99.867065;-0.062500;0.294434;0.958252
99.867310;-0.060303;0.299072;0.961426
99.867661;-0.064697;0.294434;0.958496
99.869362;-0.063965;0.294189;0.958496
99.869598;-0.062256;0.294922;0.957275
99.869820;-0.062988;0.295166;0.959473
99.870049;-0.060791;0.295654;0.956543
99.956886;-0.062256;0.295654;0.959229
99.957199;-0.063477;0.294189;0.958984
99.957848;-0.060791;0.297852;0.958740
99.958092;-0.061768;0.297363;0.961914
99.959373;-0.061523;0.295166;0.958008
99.959602;-0.060791;0.295410;0.955566
99.959831;-0.061523;0.295166;0.960449
99.960052;-0.061279;0.294922;0.957275
100.046089;-0.061768;0.299561;0.960693
100.046371;-0.063721;0.292236;0.958496
100.046608;-0.062256;0.298340;0.959717
100.046837;-0.059814;0.296875;0.954834
100.136391;-0.061768;0.295166;0.961182
100.136688;-0.061523;0.296875;0.956543
100.136932;-0.065186;0.296875;0.957520
100.137161;-0.062012;0.294922;0.958740
100.226112;-0.063232;0.296387;0.956787
100.226395;-0.062988;0.296143;0.959473
100.226631;-0.062744;0.291992;0.957520
100.226860;-0.062256;0.297363;0.961670
100.316734;-0.061523;0.295654;0.955566
100.316986;-0.061035;0.293457;0.961182
100.317223;-0.063232;0.295654;0.956787
100.317444;-0.062256;0.294678;0.956055
100.863914;-0.060059;0.297607;0.962402
100.864197;-0.060303;0.298096;0.958496
100.864441;-0.061035;0.296631;0.957520
100.864670;-0.064941;0.292480;0.959229
100.946175;-0.062012;0.298096;0.959961
100.946609;-0.061768;0.296143;0.959717
100.946846;-0.060547;0.295654;0.956543
100.947075;-0.062500;0.297852;0.960938
101.037155;-0.061768;0.295166;0.958984
101.037407;-0.062256;0.295898;0.958984
101.037636;-0.062500;0.297119;0.960693
101.037865;-0.062256;0.296875;0.960205
101.125771;-0.062256;0.297607;0.959229
101.126190;-0.064209;0.295898;0.958740
101.126427;-0.061523;0.296631;0.960449
101.126656;-0.061035;0.297363;0.958496
101.128670;-0.061768;0.296143;0.959717
101.128906;-0.063477;0.293213;0.957520
101.129135;-0.060791;0.298828;0.961182
