timestamp;value
1.586726;0.315248
1.764567;0.182512
2.305004;0.481168
3.298069;1.045296
4.194901;0.879376
5.097545;0.929152
6.087132;0.813008
6.987154;0.730048
7.255120;0.497760
8.248195;0.779824
8.695784;0.763232
9.777514;0.763232
10.225079;0.746640
11.034573;0.730048
11.757077;0.696864
12.658276;0.713456
13.104356;0.730048
14.187055;0.746640
14.635205;0.779824
15.455724;0.829600
16.615543;0.879376
17.515057;0.912560
18.414755;0.962336
19.318722;0.912560
20.306246;0.929152
20.934544;0.879376
21.926497;0.895968
23.095306;0.895968
23.546713;0.862784
24.627596;0.862784
25.614599;0.846192
26.156746;0.862784
26.967178;0.846192
27.864437;0.879376
28.950157;0.862784
29.938108;0.862784
30.476742;0.862784
31.285074;0.846192
32.189751;0.813008
32.907032;0.813008
33.806400;0.846192
34.975193;0.862784
35.877369;0.895968
36.504696;0.929152
37.407570;0.962336
38.666256;0.945744
38.755436;0.049776
39.660130;0.978928
40.376175;0.945744
41.275375;0.929152
42.452374;0.879376
43.435699;0.879376
44.338402;0.962336
45.414345;0.978928
46.315166;0.995520
47.035603;1.012112
48.211964;1.012112
49.016785;1.012112
50.280064;0.962336
51.267883;0.912560
51.807243;0.879376
52.706398;0.912560
53.697468;0.995520
54.869747;1.028704
55.765114;1.028704
56.755878;0.995520
57.747753;0.995520
58.737103;0.995520
59.724995;0.945744
60.988354;0.929152
61.527218;0.895968
62.430168;0.895968
63.325092;0.945744
64.500351;1.028704
65.666908;1.045296
66.476486;1.061888
67.557220;1.061888
68.547310;1.028704
69.810410;0.978928
70.525230;0.945744
71.518066;0.912560
72.418579;0.895968
73.588791;0.929152
74.127228;0.912560
75.117851;0.912560
76.017616;0.929152
77.186844;0.929152
78.088333;0.945744
79.077103;0.962336
79.978867;0.995520
81.056526;0.962336
81.867210;0.945744
83.035507;0.978928
83.667458;0.962336
84.746506;0.945744
85.740791;0.895968
86.728844;0.912560
87.446129;0.995520
88.533340;1.028704
89.425362;0.962336
90.511566;0.895968
91.225433;0.862784
92.305626;0.879376
93.299042;0.912560
94.291183;0.945744
94.915634;0.945744
95.817444;0.912560
96.805626;0.846192
97.529106;0.779824
98.067749;0.680272
98.785416;0.663680
99.870819;0.813008
100.856621;0.879376
101.490868;0.978928
103.020615;1.294176
104.097862;1.028704
104.815384;1.028704
105.627541;0.862784
106.798340;0.779824
107.248657;0.829600
108.145569;0.846192
109.138313;0.879376
109.857475;0.846192
110.758888;0.813008
111.658157;0.813008
112.557137;0.846192
113.185638;0.862784
114.358337;0.862784
115.259521;0.829600
115.705666;0.829600
116.518578;0.846192
117.418304;0.862784
118.498787;0.862784
118.945572;0.680272
120.117744;0.862784
120.658775;0.862784
121.736076;0.829600
122.637276;0.862784
123.266228;0.829600
124.257523;0.829600
125.336281;0.879376
125.966156;0.895968
126.779015;0.813008
127.678848;0.846192
128.305710;0.829600
129.298660;0.779824
129.838608;0.763232
130.647919;0.763232
131.455688;0.796416
132.539474;0.813008
133.075989;0.796416
134.159271;0.796416
134.611053;0.796416
135.690994;0.796416
136.225922;0.796416
137.129013;0.796416
138.116135;0.813008
138.655807;0.829600
139.649597;0.829600
140.548279;0.862784
141.537292;0.895968
142.438339;0.895968
143.257141;0.895968
144.238480;0.895968
145.139572;0.929152
146.038620;0.846192
146.577255;0.846192
147.491364;0.829600
148.468781;0.846192
149.096466;0.813008
149.999039;0.813008
151.078568;0.813008
151.526276;0.813008
152.245987;0.779824
153.056061;0.796416
154.049545;0.796416
154.946228;0.829600
155.576096;0.862784
156.656433;0.879376
157.649857;0.912560
158.639801;0.978928
159.268661;0.945744
160.436615;0.945744
161.429810;0.895968
161.966141;0.846192
163.136337;0.829600
163.588196;0.829600
164.668289;0.813008
165.568787;0.813008
166.108170;0.862784
167.006271;0.912560
168.089020;0.895968
169.173172;0.912560
169.796326;0.912560
170.611801;0.879376
171.508331;0.895968
172.408646;0.879376
173.309158;0.879376
174.211716;0.879376
175.197052;0.879376
176.098114;0.895968
177.177170;0.879376
177.716965;0.895968
178.617508;0.895968
179.518661;0.895968
180.686722;0.862784
181.586060;0.895968
182.216766;0.912560
183.476578;0.929152
184.379578;0.929152
185.007904;0.945744
185.907059;0.945744
186.895050;0.929152
187.798798;0.929152
188.785400;0.962336
189.687195;0.929152
190.588409;0.912560
191.576889;0.912560
192.477127;0.945744
193.376175;0.929152
194.460556;0.912560
195.178207;0.912560
196.077652;0.846192
196.975510;0.846192
197.787247;0.879376
198.690094;0.912560
199.585205;0.879376
200.670883;0.813008
201.205078;0.779824
202.293808;0.730048
202.647263;0.763232
203.818024;0.746640
204.175140;0.730048
205.076767;0.680272
205.524429;0.663680
206.248840;0.647088
206.785202;0.630496
207.687912;0.663680
208.048538;0.647088
208.855667;0.680272
209.490921;0.680272
210.565292;0.696864
210.838715;0.713456
211.647400;0.779824
212.641266;0.779824
213.177399;0.796416
213.985367;0.779824
214.888824;0.746640
215.788116;0.696864
216.147491;0.713456
217.138901;0.746640
217.678299;0.779824
218.488190;0.813008
219.385376;0.813008
220.375748;0.813008
220.915344;0.796416
221.636414;0.746640
222.537872;0.696864
223.348953;0.696864
223.707993;0.680272
224.785889;0.746640
225.239120;0.763232
226.316177;0.796416
227.129227;0.796416
227.667648;0.846192
228.475830;0.813008
229.645889;0.779824
230.096924;0.763232
230.818756;0.779824
231.627579;0.829600
232.795273;0.846192
233.698105;0.862784
234.237747;0.895968
235.136398;0.879376
236.035538;0.846192
236.938766;0.829600
237.839783;0.796416
238.378952;0.779824
239.456665;0.813008
240.355408;0.829600
241.258636;0.862784
241.705490;0.829600
242.610901;0.829600
243.417068;0.829600
244.227386;0.829600
245.129272;0.813008
246.028946;0.813008
246.841232;0.813008
247.827606;0.846192
248.815689;0.829600
249.175674;0.829600
249.987823;0.846192
251.068558;0.846192
251.966141;0.813008
252.508179;0.829600
253.405762;0.862784
254.215729;0.862784
255.208694;0.862784
256.198486;0.846192
256.828064;0.846192
257.635925;0.796416
258.625977;0.813008
259.441040;0.813008
260.065765;0.813008
260.788544;0.796416
261.690308;0.813008
262.858673;0.829600
263.397949;0.895968
264.477997;0.862784
265.379547;0.862784
265.918060;0.862784
266.906830;0.862784
267.629669;0.846192
268.528839;0.846192
269.425873;0.879376
270.505768;0.879376
271.136658;0.879376
272.131378;0.912560
273.119843;0.945744
274.292145;0.945744
274.916107;0.929152
275.996399;0.945744
276.811279;0.895968
277.796539;0.862784
278.427063;0.862784
279.418884;0.895968
280.319611;0.862784
281.399536;0.895968
282.298737;0.879376
282.837494;0.862784
283.741333;0.862784
284.728119;0.862784
285.448853;0.862784
286.708740;0.862784
287.156433;0.862784
288.056244;0.879376
289.136353;0.862784
289.767487;0.862784
290.667023;0.879376
291.659607;0.829600
292.286224;0.813008
293.187439;0.879376
293.906769;0.680272
295.081360;1.111664
295.886230;0.912560
297.238861;0.895968
297.777466;0.978928
298.409485;0.464576
298.588440;0.348432
298.858582;0.248880
299.576355;0.713456
300.566498;0.713456
301.016296;0.713456
301.920227;0.796416
302.458405;0.696864
303.086334;0.597312
303.991394;0.879376
304.886505;0.846192
305.790009;0.895968
306.691650;0.978928
307.678223;0.945744
308.579529;0.862784
309.570068;0.945744
310.468689;0.763232
311.189484;0.613904
311.548615;0.746640
312.448944;0.895968
313.167572;0.580720
313.979675;0.564128
314.427307;0.846192
315.149323;0.564128
315.416443;0.381616
315.510040;0.132736
316.230225;0.365024
316.499268;0.398208
316.588989;0.082960
316.946594;0.564128
317.848114;0.630496
318.116547;0.514352
319.290039;0.680272
320.186707;0.647088
320.370087;0.414800
320.906586;0.514352
321.447388;0.547536
322.346802;0.696864
323.159363;0.647088
323.343140;0.514352
323.610046;0.365024
324.600494;0.796416
324.961151;0.547536
325.950714;0.746640
326.307648;0.547536
326.938995;0.298656
327.211365;0.630496
328.199188;0.630496
328.558105;0.680272
329.276825;0.746640
330.087982;0.680272
331.349243;0.696864
331.978516;0.597312
332.519867;0.232288
332.876801;0.663680
333.776825;0.813008
334.410828;0.746640
334.496918;0.033184
335.216858;0.730048
336.300842;0.813008
336.656860;0.630496
337.467316;0.680272
337.737305;0.398208
338.637909;0.663680
338.908478;0.564128
339.538635;0.564128
339.896851;0.381616
340.710876;0.530944
341.159180;0.730048
341.790436;0.514352
342.147430;0.514352
343.046936;0.365024
343.407471;0.315248
343.500397;0.132736
344.036896;0.530944
344.846924;0.779824
345.476929;0.647088
346.107025;0.597312
346.650482;0.298656
346.831238;0.365024
347.909485;0.779824
348.537140;0.895968
349.348114;0.945744
349.977203;0.647088
350.880157;0.696864
351.691223;0.663680
351.871490;0.398208
352.497345;0.680272
353.398926;0.813008
353.937683;0.846192
354.837952;0.895968
355.652832;0.829600
356.549194;0.912560
357.359650;0.829600
358.440125;0.862784
359.255951;0.763232
359.698456;0.696864
360.327301;0.564128
360.779510;0.481168
361.137268;0.331840
361.499481;0.398208
362.218781;0.398208
362.488434;0.613904
363.211304;0.613904
363.570557;0.464576
364.200775;0.564128
365.190155;0.630496
366.177612;0.530944
366.450562;0.564128
366.899414;0.547536
367.978973;1.078480
368.969666;0.995520
369.957489;0.978928
370.500763;0.564128
371.307800;0.796416
372.032074;0.597312
372.750031;0.530944
373.020721;0.530944
373.740448;0.464576
374.187439;0.730048
374.907501;0.713456
375.631989;0.497760
375.812500;0.464576
376.538574;0.530944
376.799835;0.431392
377.432953;0.381616
378.599884;0.713456
379.320435;0.564128
379.502411;0.447984
380.038300;0.564128
380.669250;0.431392
381.027832;0.580720
381.567902;0.547536
382.380371;0.796416
383.103546;0.564128
383.286285;0.315248
384.087769;0.846192
385.078308;0.763232
385.893036;0.796416
386.428894;0.813008
387.330383;0.663680
387.419922;0.165920
387.870422;0.597312
388.227753;0.315248
388.857819;0.647088
389.670013;0.862784
390.483185;0.730048
391.468567;0.796416
391.830139;0.613904
392.637939;0.530944
393.089996;0.713456
394.170013;0.862784
394.351227;0.431392
395.159973;0.447984
395.431305;0.597312
396.058441;0.630496
396.417877;0.331840
396.779449;0.365024
396.786163;0.049776
397.591827;0.564128
398.491943;0.746640
398.939697;0.779824
399.659912;0.779824
400.653198;0.779824
401.728607;0.962336
402.088501;0.630496
402.538025;0.464576
403.260559;0.779824
404.431183;0.746640
404.611908;0.580720
405.511444;0.713456
405.960754;0.663680
406.771759;0.696864
407.397614;0.713456
408.214783;0.829600
409.109192;0.829600
410.008331;0.696864
410.460388;0.713456
411.273315;0.730048
412.081268;0.713456
412.897949;0.663680
413.162720;0.613904
414.058594;0.630496
414.868286;0.730048
415.588409;1.045296
416.578796;0.746640
417.119141;0.746640
418.110168;0.796416
418.468781;0.530944
419.099701;0.647088
419.999451;0.663680
420.271362;0.564128
420.993744;0.564128
421.258972;0.398208
421.888519;0.580720
422.249481;0.431392
423.060089;0.464576
423.328400;0.564128
424.050598;0.481168
424.408661;0.630496
425.399872;0.663680
425.583679;0.447984
426.208588;0.630496
427.021729;0.895968
427.558228;0.481168
427.920593;0.414800
428.550720;0.547536
428.998535;0.481168
429.721191;0.613904
430.620056;0.746640
430.802124;0.464576
431.338806;0.447984
431.791046;0.530944
432.418549;0.597312
433.322144;0.630496
433.680603;0.497760
433.950745;0.464576
434.761108;0.613904
435.212006;0.647088
436.289124;0.663680
436.649231;0.696864
437.370880;0.730048
437.908569;0.564128
438.898712;0.630496
439.083282;0.547536
439.982422;0.564128
440.248810;0.547536
441.060883;0.730048
441.418793;0.497760
441.868805;0.414800
442.141571;0.298656
442.500854;0.381616
442.949005;0.398208
443.580322;0.696864
444.482056;0.730048
444.839355;0.530944
445.738983;0.580720
446.098846;0.647088
446.552155;0.481168
446.998962;0.381616
447.539459;0.530944
448.348999;0.497760
449.071533;0.447984
449.518890;0.763232
450.329376;0.514352
450.510651;0.497760
450.962921;0.431392
451.504272;0.365024
452.038879;0.696864
452.851379;0.447984
453.211914;0.514352
453.478241;0.447984
454.112701;0.481168
454.295166;0.298656
454.828796;0.580720
455.820831;0.813008
456.719391;0.813008
457.174255;0.746640
457.799042;0.597312
458.519135;0.713456
459.242737;0.647088
460.139496;0.713456
460.410492;0.514352
460.679443;0.298656
461.221191;0.530944
461.669159;0.431392
461.759125;0.116144
462.121002;0.381616
463.022034;0.730048
463.559326;0.680272
464.191437;0.680272
465.182526;0.779824
466.081451;0.862784
466.350555;0.514352
467.259216;0.497760
467.436188;0.547536
467.969208;0.564128
468.782074;0.464576
468.962158;0.497760
469.951080;0.846192
470.579376;0.779824
471.029449;0.464576
471.480713;0.447984
471.839722;0.381616
472.470917;0.597312
472.739563;0.282064
473.099365;0.348432
473.913666;0.663680
474.182983;0.447984
474.993286;0.680272
475.351685;0.447984
475.800293;0.431392
476.249939;0.497760
476.789062;0.547536
477.599792;0.663680
478.231781;0.464576
478.503967;0.497760
479.129395;0.647088
479.851349;0.447984
480.299927;0.746640
481.201874;0.730048
482.012695;0.647088
482.369293;0.713456
483.095459;0.647088
483.719482;0.663680
484.536499;0.447984
484.620697;0.082960
484.712952;0.315248
484.889160;0.298656
485.791870;0.680272
486.149475;0.613904
486.784607;0.663680
487.501526;0.597312
488.312592;0.580720
488.405304;0.298656
488.941803;0.680272
489.753265;0.580720
490.204102;0.663680
491.282867;1.095072
492.273041;0.829600
492.631683;0.530944
493.532806;0.746640
493.982422;0.613904
494.886169;0.613904
495.329834;0.696864
496.232666;0.680272
496.682831;0.630496
497.672577;0.647088
497.942047;0.613904
498.665558;0.613904
499.109894;0.564128
499.469940;0.381616
500.009705;0.564128
500.642334;0.647088
501.629883;0.663680
501.902191;0.597312
502.621674;0.564128
503.076111;0.613904
503.969940;0.713456
504.510010;0.696864
505.321991;0.597312
505.679993;0.547536
506.311859;0.481168
507.301758;0.945744
507.660095;0.580720
508.289764;0.597312
509.100464;0.497760
509.460022;0.713456
510.361938;0.564128
510.720398;0.647088
511.349945;0.613904
511.893036;0.613904
512.615417;0.613904
513.423767;0.597312
513.691956;0.464576
514.680176;0.730048
514.861206;0.564128
515.765259;0.813008
516.303650;0.597312
517.025574;0.696864
517.921753;0.647088
518.460510;0.779824
519.001648;0.564128
519.540161;0.547536
520.083191;0.530944
520.803711;0.597312
521.612610;0.564128
521.701721;0.199104
521.793396;0.132736
522.152283;0.580720
522.691223;0.547536
523.142334;0.447984
523.770813;0.199104
524.042358;0.696864
524.941284;0.680272
525.481689;0.730048
526.381775;0.879376
526.740234;0.365024
527.552795;0.497760
528.003784;0.680272
528.990601;0.779824
529.352295;0.647088
530.520630;0.945744
531.063660;0.813008
531.692993;0.381616
532.593994;0.813008
533.045288;0.746640
533.580444;0.530944
534.390991;0.779824
535.383484;0.663680
535.563354;0.481168
535.920532;0.398208
536.374939;0.497760
536.821350;0.481168
538.532593;0.829600
539.429932;0.862784
540.241333;0.713456
540.332397;0.265472
541.141907;0.746640
541.412292;0.298656
541.500854;0.049776
542.401978;0.730048
542.941956;0.746640
543.842651;0.680272
544.652222;0.829600
544.832886;0.398208
545.011169;0.149328
545.733337;0.348432
546.005005;0.663680
547.087036;0.796416
547.351562;0.564128
547.891174;0.165920
548.070312;0.348432
548.160889;0.315248
549.061462;0.746640
550.232483;1.095072
551.130127;0.696864
551.400574;0.282064
551.852539;0.862784
552.931030;0.895968
553.290405;0.464576
554.014587;0.431392
554.195007;0.514352
555.093201;0.912560
555.540833;0.414800
556.440979;0.514352
556.622437;0.481168
556.982422;0.431392
557.250610;0.265472
557.790405;0.547536
557.880920;0.149328
558.420715;0.464576
558.601196;0.182512
559.231934;0.348432
559.505798;0.431392
560.314026;0.813008
560.763000;0.630496
561.664062;0.763232
561.674377;0.149328
562.656372;0.730048
562.924316;0.497760
563.821289;0.630496
564.183105;0.647088
564.723755;0.547536
565.263245;0.298656
566.614197;1.194624
566.884399;0.613904
567.601379;0.597312
568.231262;0.746640
569.045898;0.580720
569.223022;0.232288
569.760986;0.779824
570.754578;0.796416
571.113770;0.514352
571.921448;0.796416
572.282349;0.398208
572.821167;0.497760
573.721252;0.895968
574.534241;0.730048
575.261108;0.431392
575.434570;0.564128
576.421265;0.713456
577.146423;0.779824
577.683472;0.746640
578.496582;0.763232
579.034119;0.597312
580.113403;0.779824
581.193909;1.078480
581.552063;0.613904
582.364075;0.730048
582.991272;0.730048
583.981567;0.746640
584.432861;0.713456
585.244019;0.663680
586.053345;0.746640
586.681274;0.846192
587.674377;0.730048
588.123230;0.746640
589.021545;0.829600
589.925476;0.813008
590.641785;0.746640
591.273682;0.696864
592.086060;0.763232
593.073181;0.779824
593.523804;0.763232
594.875488;1.061888
595.234253;0.597312
596.041382;0.813008
596.761536;0.730048
597.574402;0.829600
598.742920;0.796416
599.463013;0.796416
600.091370;0.862784
600.811401;0.730048
602.253784;1.095072
602.701111;0.846192
603.422180;0.713456
604.321899;0.862784
605.221558;0.945744
606.033264;0.813008
606.841553;0.796416
607.834167;0.813008
608.461182;0.746640
609.270691;0.813008
609.816895;0.381616
610.083923;0.481168
610.532959;0.447984
610.983643;0.414800
611.433655;0.497760
611.794373;0.365024
612.692017;0.547536
612.784119;0.315248
613.324524;0.680272
613.953613;0.232288
614.134705;0.564128
614.854492;0.331840
615.033569;0.564128
615.571289;0.481168
615.932678;0.431392
616.471985;0.464576
617.195007;0.481168
617.371521;0.414800
618.007019;0.481168
618.276062;0.481168
618.811401;0.481168
619.264099;0.481168
619.712708;0.481168
620.252197;0.481168
620.971802;0.481168
621.153625;0.481168
621.876038;0.497760
622.231689;0.530944
623.045654;0.514352
623.315735;0.530944
623.851929;0.547536
624.662109;0.514352
624.844116;0.530944
625.381958;0.530944
625.922302;0.530944
626.463745;0.530944
627.364380;0.530944
627.547119;0.514352
628.354187;0.530944
628.713806;0.530944
629.072937;0.497760
629.794678;0.530944
630.153625;0.530944
630.604858;0.530944
631.324890;0.547536
632.134583;0.564128
632.313721;0.547536
632.854736;0.580720
633.575378;0.564128
634.024170;0.564128
634.924316;0.530944
635.193054;0.530944
635.914551;0.530944
636.096985;0.514352
636.993347;0.530944
637.263977;0.497760
637.713989;0.530944
638.164307;0.497760
638.883667;0.564128
639.151611;0.414800
639.967102;0.564128
640.231567;0.464576
640.684021;0.530944
641.671204;0.613904
641.941284;0.580720
642.662720;0.580720
643.382629;0.580720
643.653748;0.564128
644.642212;0.613904
644.824707;0.580720
645.451721;0.597312
646.081787;0.613904
646.895508;0.547536
647.254517;0.613904
648.151855;0.547536
648.602112;0.547536
648.871765;0.547536
649.685486;0.547536
650.133179;0.547536
650.491882;0.514352
651.304443;0.481168
651.664124;0.514352
652.021790;0.530944
652.562500;0.547536
653.464478;0.597312
653.734009;0.580720
654.542664;0.597312
654.901978;0.597312
655.892273;0.613904
656.164490;0.647088
656.791748;0.630496
657.606140;0.580720
658.053955;0.597312
658.591919;0.597312
659.221985;0.597312
660.034119;0.580720
660.395081;0.580720
661.115540;0.580720
661.564148;0.597312
662.373718;0.564128
662.644287;0.580720
663.271851;0.580720
663.813965;0.597312
664.622375;0.597312
665.071472;0.597312
665.611572;0.547536
666.151672;0.580720
666.872559;0.580720
667.411499;0.613904
667.952576;0.613904
668.764771;0.696864
669.664307;0.663680
669.934204;0.630496
670.656860;0.597312
671.462158;0.580720
671.734314;0.597312
672.636230;0.597312
672.992126;0.613904
673.534790;0.564128
674.344177;0.613904
674.794067;0.630496
675.606140;0.713456
676.415649;0.613904
676.685181;0.597312
677.222839;0.564128
678.035278;0.630496
678.845825;0.630496
679.295959;0.630496
679.832642;0.630496
680.734680;0.580720
681.094849;0.613904
681.632446;0.613904
682.172485;0.597312
682.802368;0.597312
683.342163;0.530944
683.972473;0.613904
684.244751;0.348432
684.963562;0.696864
685.592468;0.597312
686.315552;0.613904
687.126587;0.663680
687.664368;0.846192
688.292786;0.630496
689.104126;0.630496
689.914795;0.597312
690.095154;0.547536
690.722168;0.613904
691.354126;0.630496
691.982361;0.597312
692.792419;0.580720
693.152405;0.613904
693.967651;0.630496
694.324524;0.564128
695.134155;0.564128
695.494446;0.564128
696.032227;0.580720
696.662354;0.580720
697.205933;0.597312
697.927368;0.630496
698.736206;0.580720
699.094543;0.663680
699.722412;0.597312
700.445435;0.547536
700.892334;0.597312
701.614746;0.547536
701.975464;0.613904
702.692322;0.547536
703.232422;0.680272
704.403992;1.128256
705.125305;0.779824
706.115601;0.962336
707.015137;0.763232
707.737854;0.630496
708.182373;0.647088
708.995789;0.630496
709.442444;0.647088
710.344055;0.647088
710.792603;0.680272
711.422546;0.647088
712.054382;0.647088
712.953857;0.663680
713.404663;0.696864
714.214844;0.680272
715.113647;0.696864
715.474670;0.713456
716.462036;0.696864
717.272766;0.680272
717.543030;0.630496
718.174866;0.663680
718.985718;0.647088
719.434570;0.580720
720.243347;0.613904
720.605469;0.597312
721.595032;0.597312
721.865051;0.613904
722.765076;0.630496
723.124634;0.630496
723.755066;0.647088
724.472534;0.663680
725.196350;0.663680
726.007935;0.663680
726.455261;0.680272
727.084106;0.647088
727.804199;0.663680
728.435120;0.647088
729.244690;0.613904
729.694702;0.647088
730.505310;0.613904
730.864014;0.613904
731.497681;0.647088
732.219543;0.647088
732.844055;0.663680
733.742920;0.647088
734.193237;0.663680
735.094727;0.663680
735.542664;0.680272
736.172791;0.663680
736.804138;0.663680
737.526855;0.613904
738.062683;0.630496
738.784058;0.613904
739.507629;0.647088
739.954712;0.647088
740.945984;0.663680
741.304932;0.630496
741.932617;0.663680
743.014587;0.696864
743.285217;0.647088
744.094910;0.680272
744.632812;0.680272
745.355652;0.680272
746.256348;0.663680
746.702820;0.663680
747.515076;0.647088
748.325684;0.647088
748.597290;0.663680
749.224976;0.597312
750.213013;0.647088
750.485168;0.663680
751.295715;0.680272
751.835449;0.663680
752.552002;0.663680
753.184082;0.680272
754.265564;0.696864
754.622925;0.680272
755.435242;0.696864
755.973816;0.663680
756.602905;0.663680
757.233032;0.647088
758.134949;0.630496
758.582764;0.680272
759.395142;0.613904
759.844910;0.663680
760.924622;0.680272
761.376099;0.696864
762.185852;0.713456
762.902893;0.730048
763.802917;0.730048
764.075378;0.696864
764.975586;0.730048
765.696106;0.713456
766.235046;0.680272
767.044922;0.663680
767.582947;0.680272
768.398315;0.647088
768.842957;0.647088
769.746094;0.663680
770.195190;0.680272
771.185547;0.663680
771.545105;0.663680
772.175232;0.663680
772.894348;0.696864
773.612976;0.663680
774.243530;0.663680
775.055969;0.663680
775.595276;0.680272
776.405396;0.647088
777.217041;0.647088
777.486389;0.647088
778.203186;0.663680
778.835510;0.663680
779.558044;0.647088
780.183105;0.647088
780.813293;0.663680
781.714844;0.680272
782.165405;0.647088
783.155884;0.663680
783.513123;0.680272
784.236938;0.647088
784.773254;0.630496
785.584229;0.630496
786.033081;0.613904
786.843079;0.630496
787.565430;0.580720
787.925720;0.580720
788.376099;0.613904
789.004211;0.630496
789.903442;0.613904
790.263123;0.647088
791.163391;0.613904
791.523132;0.647088
792.245605;0.647088
792.875610;0.663680
793.687683;0.663680
794.497070;0.663680
794.853210;0.647088
795.756897;0.630496
796.115417;0.647088
796.745422;0.647088
797.553833;0.647088
798.365295;0.630496
798.635559;0.613904
799.446289;0.613904
800.168335;0.630496
800.525452;0.647088
801.338501;0.647088
801.873657;0.663680
802.503235;0.663680
803.223328;0.647088
804.035767;0.647088
804.485657;0.663680
805.296936;0.680272
806.195435;0.680272
806.558105;0.680272
807.183533;0.663680
807.813538;0.647088
808.896118;0.647088
809.166626;0.663680
809.975647;0.680272
810.516052;0.680272
811.235291;0.663680
812.134094;0.647088
812.493408;0.663680
813.216248;0.647088
813.756653;0.647088
814.476440;0.663680
815.100586;0.630496
815.910400;0.613904
816.358521;0.647088
817.173279;0.647088
817.708923;0.696864
818.428467;0.696864
819.418945;0.713456
819.778931;0.680272
820.501160;0.696864
821.130676;0.680272
821.851074;0.713456
822.571716;0.680272
823.468750;0.680272
823.922668;0.647088
824.550903;0.647088
825.180908;0.647088
826.171509;0.663680
826.528870;0.663680
827.342834;0.663680
827.878906;0.663680
828.508667;0.663680
829.232727;0.680272
830.129089;0.696864
830.941345;0.713456
831.298645;0.663680
832.022217;0.680272
832.921692;0.696864
833.728943;0.696864
834.001099;0.696864
834.812744;0.630496
835.622070;0.663680
835.978699;0.663680
836.703735;0.680272
837.511169;0.663680
837.958618;0.663680
838.680786;0.663680
839.491577;0.663680
840.028748;0.680272
840.839172;0.680272
841.654236;0.680272
842.009094;0.630496
842.638916;0.663680
843.359436;0.663680
844.352417;0.680272
844.708740;0.680272
845.522766;0.663680
846.418640;0.647088
846.781494;0.663680
847.318970;0.680272
848.038025;0.680272
848.850403;0.680272
849.751404;0.663680
850.202148;0.663680
850.739014;0.680272
851.463806;0.696864
852.275391;0.696864
852.719177;0.630496
853.350159;0.647088
854.071411;0.663680
855.061584;0.647088
855.419067;0.680272
856.323364;0.630496
856.678894;0.647088
857.309387;0.647088
857.938965;0.630496
858.928894;0.630496
859.292358;0.613904
860.102539;0.597312
860.459045;0.597312
861.000977;0.597312
861.451416;0.514352
862.169189;0.680272
862.981873;0.663680
863.428955;0.630496
864.244080;0.647088
864.781189;0.663680
865.498962;0.680272
866.403015;0.663680
866.848938;0.730048
867.751953;0.696864
868.289368;0.713456
869.194275;0.730048
870.091553;0.696864
870.541382;0.696864
871.081177;0.696864
872.070862;0.696864
872.519287;0.696864
873.149048;0.680272
874.051575;0.680272
874.862305;0.696864
875.221191;0.696864
875.939087;0.696864
876.569397;0.663680
877.472351;0.696864
878.011353;0.713456
878.824402;0.763232
879.541504;0.779824
880.442444;0.763232
881.072632;0.746640
881.791321;0.746640
882.604126;0.763232
883.320312;0.713456
884.131348;0.713456
884.672241;0.713456
885.479126;0.730048
886.199585;0.713456
886.924866;0.680272
887.735107;0.696864
888.271484;0.713456
889.081421;0.713456
889.710876;0.746640
890.616089;0.696864
891.059265;0.696864
891.961792;0.696864
892.861206;0.713456
893.220459;0.696864
894.302063;0.696864
894.572144;0.680272
895.470398;0.680272
896.281311;0.696864
896.639221;0.696864
897.364746;0.696864
898.261292;0.696864
899.072205;0.696864
899.431702;0.713456
900.151794;0.696864
901.052246;0.696864
901.862061;0.696864
902.309265;0.713456
903.124634;0.680272
903.661621;0.680272
904.651855;0.680272
905.011414;0.713456
906.089783;0.730048
906.453674;0.730048
907.532898;0.713456
907.979553;0.713456
908.609314;0.713456
909.693115;0.713456
910.049316;0.680272
910.861511;0.696864
911.399414;0.696864
912.119690;0.696864
913.020630;0.696864
913.833069;0.680272
914.189331;0.696864
914.909546;0.680272
915.540527;0.680272
916.352051;0.680272
917.250732;0.696864
917.611694;0.696864
918.330627;0.680272
919.415527;0.730048
919.769775;0.696864
920.582581;0.713456
921.122620;0.696864
921.839844;0.663680
922.470886;0.680272
923.370239;0.663680
924.182312;0.696864
924.539612;0.663680
925.171204;0.680272
925.889832;0.696864
926.973389;0.680272
927.242004;0.680272
928.052063;0.680272
928.950012;0.713456
929.311584;0.696864
930.029846;0.663680
930.929749;0.696864
931.381775;0.696864
932.192627;0.680272
932.819763;0.696864
933.450745;0.680272
934.172058;0.713456
934.982605;0.696864
935.791870;0.713456
936.330078;0.713456
937.141846;0.713456
937.955017;0.696864
938.399597;0.696864
939.211853;0.680272
939.749695;0.680272
940.470459;0.663680
941.101746;0.663680
942.002502;0.696864
942.456299;0.680272
943.175354;0.696864
944.073303;0.713456
944.612793;0.730048
945.515320;0.713456
946.049866;0.730048
946.952332;0.696864
947.489746;0.713456
948.392944;0.680272
948.839783;0.696864
949.831177;0.696864
950.640076;0.680272
951.093140;0.696864
951.813049;0.696864
952.712402;0.713456
953.071777;0.746640
953.879700;0.746640
954.963074;0.763232
955.411987;0.779824
956.492065;0.746640
956.849854;0.713456
957.570007;0.680272
958.472412;0.713456
959.283508;0.713456
959.639893;0.663680
960.453186;0.696864
960.991943;0.696864
961.799927;0.713456
962.432129;0.713456
963.331787;0.730048
964.055237;0.730048
964.592407;0.730048
965.493713;0.730048
966.303406;0.713456
966.839905;0.730048
967.564636;0.680272
968.189941;0.663680
969.093079;0.647088
969.451111;0.663680
970.353882;0.680272
970.799988;0.663680
971.429993;0.663680
972.239685;0.730048
973.050049;0.779824
974.131958;0.813008
974.671509;0.763232
975.749756;0.746640
976.113037;0.779824
976.832214;0.746640
977.910339;0.713456
978.272217;0.730048
978.991455;0.730048
979.712097;0.713456
980.430359;0.663680
981.152161;0.663680
981.779968;0.696864
982.410339;0.680272
983.132141;0.680272
983.942322;0.696864
984.840088;0.713456
985.200500;0.713456
986.010010;0.730048
986.730164;0.730048
987.632629;0.730048
988.535461;0.730048
988.890137;0.713456
989.795715;0.713456
990.332397;0.713456
991.052795;0.730048
991.955566;0.680272
992.399719;0.680272
993.125305;0.713456
993.841125;0.713456
994.562317;0.696864
995.190186;0.680272
995.999573;0.696864
996.814880;0.730048
997.350342;0.713456
998.070435;0.713456
998.792725;0.713456
999.603821;0.696864
1000.142639;0.696864
1000.953613;0.696864
1001.762878;0.663680
1002.210510;0.647088
1002.840271;0.647088
1003.654541;0.663680
1004.100159;0.647088
1004.730469;0.630496
1005.450317;0.663680
1006.082397;0.663680
1006.800964;0.680272
1007.880615;0.696864
1008.240417;0.696864
1008.872498;0.713456
1009.593384;0.730048
1010.495789;0.696864
1011.030212;0.696864
1011.660461;0.696864
1012.382446;0.696864
1013.100464;0.663680
1013.824219;0.680272
1014.455505;0.680272
1015.080566;0.663680
1015.800354;0.680272
1016.613342;0.680272
1017.423401;0.713456
1017.870544;0.746640
1018.773132;0.696864
1019.314575;0.713456
1020.220947;0.713456
1020.750732;0.730048
1021.655090;0.680272
1022.463989;0.696864
1022.820374;0.696864
1023.540466;0.696864
1024.261108;0.680272
1025.162109;0.696864
1025.883545;0.696864
1026.330444;0.713456
1027.233765;0.680272
1027.681641;0.713456
1028.582520;0.713456
1029.122559;0.730048
1029.930542;0.696864
1030.833496;0.696864
1031.282959;0.713456
1032.090698;0.713456
1032.722778;0.696864
1033.532715;0.680272
1034.345581;0.696864
1034.790527;0.696864
1035.605835;0.663680
1036.142822;0.680272
1036.770386;0.696864
1037.495972;0.696864
1038.396240;0.680272
1038.843628;0.696864
1039.562988;0.696864
1040.282715;0.696864
1041.095459;0.680272
1041.631836;0.680272
1042.353760;0.680272
1042.983643;0.713456
1043.702881;0.696864
1044.423584;0.713456
1045.140991;0.713456
1046.043091;0.730048
1046.944336;0.730048
1047.300659;0.680272
1048.020874;0.696864
1048.650879;0.696864
1049.554199;0.696864
1050.365356;0.647088
1050.722534;0.663680
1051.353027;0.663680
1052.070679;0.696864
1052.973511;0.713456
1053.871338;0.696864
1054.144043;0.696864
1054.860840;0.713456
1055.852051;0.713456
1056.663330;0.713456
1057.020874;0.696864
1057.831177;0.696864
1058.371826;0.663680
1059.000854;0.663680
1060.084717;0.680272
1060.354004;0.663680
1061.165405;0.680272
1061.703003;0.680272
1062.514648;0.696864
1063.414307;0.730048
1063.863159;0.680272
1064.763672;0.696864
1065.213013;0.696864
1066.201172;0.663680
1066.560791;0.647088
1067.374023;0.663680
1068.273804;0.696864
1068.630859;0.680272
1069.263306;0.696864
1069.983521;0.696864
1071.064819;0.730048
1071.422974;0.713456
1072.234131;0.680272
1072.770874;0.680272
1073.495117;0.696864
1074.392822;0.680272
1075.204468;0.680272
1075.561035;0.680272
1076.553467;0.680272
1076.911865;0.680272
1077.540894;0.680272
1078.622803;0.663680
1078.895752;0.680272
1079.613159;0.696864
1080.331055;0.663680
1080.961060;0.663680
1081.862427;0.663680
1082.221313;0.630496
1083.211548;0.647088
1083.578003;0.630496
1084.563843;0.630496
1084.924438;0.647088
1085.644043;0.630496
1086.093262;0.647088
1086.904053;0.663680
1087.441650;0.647088
1088.343872;0.630496
1088.701172;0.663680
1089.514038;0.647088
1089.963501;0.647088
1090.774536;0.647088
1091.311768;0.647088
1092.301758;0.647088
1092.666138;0.680272
1093.564209;0.696864
1094.013428;0.696864
1095.004883;0.696864
1095.363281;0.696864
1096.083252;0.713456
1096.984497;0.696864
1097.794556;0.680272
1098.153320;0.696864
1098.961304;0.696864
1099.594360;0.696864
1100.585083;0.680272
1100.941528;0.663680
1101.754883;0.663680
1102.296631;0.680272
1102.923340;0.680272
1103.641113;0.696864
1104.544434;0.730048
1105.354614;0.696864
1105.802612;0.696864
1106.701782;0.696864
1107.241211;0.730048
1107.961426;0.730048
1108.681152;0.713456
1109.311523;0.680272
1110.305298;0.680272
1110.751587;0.696864
1111.476196;0.696864
1112.101685;0.680272
1112.821289;0.696864
1113.546143;0.647088
1114.443970;0.647088
1114.801392;0.680272
1115.433350;0.713456
1116.243652;0.730048
1117.054565;0.730048
1117.866821;0.730048
1118.403076;0.730048
1119.124756;0.763232
1120.203857;0.746640
1121.014160;0.730048
1121.371338;0.696864
1122.096680;0.713456
1122.994385;0.713456
1123.441895;0.713456
1124.436768;0.680272
1124.793457;0.663680
1125.604492;0.696864
1126.231323;0.713456
1126.953491;0.763232
1127.764160;0.796416
1128.754761;0.796416
1129.564941;0.730048
1130.101929;0.746640
1130.821411;0.763232
1131.632080;0.746640
1132.445312;0.746640
1133.256836;0.713456
1134.154175;0.713456
1134.512451;0.730048
1135.503540;0.713456
1135.951416;0.713456
1137.032349;0.730048
1138.566895;0.713456
1139.014404;0.730048
1139.735596;0.613904
1140.361694;0.680272
1141.081665;0.713456
1141.801514;0.730048
1142.617065;0.730048
1143.424438;0.713456
1143.961548;0.730048
1144.771484;0.730048
1145.402710;0.730048
1146.215942;0.696864
1146.843140;0.696864
1147.561890;0.713456
1148.281738;0.713456
1149.093750;0.730048
1149.993652;0.713456
1150.443726;0.746640
1151.345825;0.796416
1151.972778;0.779824
1152.871582;0.813008
1153.774780;0.796416
1154.403442;0.796416
1155.214844;0.779824
1156.021606;0.796416
1156.651733;0.613904
1157.641724;0.630496
1158.091797;0.846192
1158.903198;0.829600
1159.623779;0.713456
1160.342163;0.713456
1161.066772;0.730048
1161.964600;0.713456
1162.503906;0.730048
1163.316162;0.730048
1164.217896;0.746640
1165.023926;0.713456
1165.383911;0.696864
1166.104370;0.713456
1167.004761;0.696864
1167.543579;0.730048
1168.264038;0.696864
1168.893066;0.680272
1169.794678;0.696864
1170.334717;0.730048
1171.057007;0.696864
1172.041992;0.696864
1172.492065;0.713456
1173.571777;0.730048
1173.937378;0.746640
1174.835083;0.746640
1175.733765;0.779824
1176.184692;0.746640
1177.261719;0.779824
1177.796997;0.763232
1178.609497;0.713456
1179.506958;0.713456
1179.867798;0.713456
1180.676636;0.746640
1181.667969;0.713456
1182.116577;0.730048
1182.928467;0.713456
1183.556519;0.763232
1184.371948;0.763232
1185.180542;0.746640
1186.076782;0.746640
1186.528809;0.730048
1187.336792;0.746640
1188.057617;0.746640
1188.959229;0.730048
1189.857056;0.730048
1190.217529;0.730048
1191.118896;0.746640
1192.019775;0.746640
1192.466553;0.696864
1193.456665;0.730048
1193.906494;0.730048
1194.986328;0.746640
1195.436768;0.763232
1196.430176;0.730048
1196.878784;0.746640
1197.780273;0.730048
1198.588379;0.746640
1199.039429;0.696864
1200.119507;0.713456
1200.478638;0.730048
1201.468994;0.746640
1202.368286;0.746640
1202.727661;0.730048
1203.632446;0.730048
1204.170410;0.730048
1204.800293;0.647088
1205.519043;0.696864
1206.236816;0.663680
1206.866577;0.647088
1207.682129;0.630496
1208.126953;0.663680
1209.116943;0.680272
1209.566772;0.713456
1210.559814;0.680272
1210.917114;0.696864
1211.641846;0.680272
1212.266968;0.663680
1213.259155;0.663680
1213.711426;0.663680
1214.522217;0.680272
1214.967163;0.663680
1215.690063;0.663680
1216.317017;0.680272
1217.129639;0.680272
1218.029419;0.696864
1218.386719;0.696864
1219.379028;0.696864
1219.737793;0.696864
1220.819824;0.696864
1221.176758;0.713456
1221.990723;0.730048
1222.616699;0.696864
1223.250000;0.663680
1223.967041;0.696864
1224.779907;0.696864
1225.590942;0.696864
1226.036865;0.680272
1227.028198;0.680272
1227.389038;0.696864
1228.380981;0.696864
1228.827393;0.713456
1229.729614;0.730048
1230.267578;0.713456
1231.172119;0.730048
1231.708008;0.713456
1232.610718;0.730048
1233.146973;0.713456
1234.138428;0.680272
1234.499634;0.696864
1235.399292;0.696864
1236.214355;0.713456
1236.657227;0.713456
1237.377319;0.730048
1238.099243;0.730048
1239.089600;0.763232
1239.990601;0.846192
1240.619629;0.895968
1241.787231;0.763232
1242.147095;0.713456
1242.960205;0.730048
1243.772461;0.713456
1244.309326;0.763232
1245.027710;0.713456
1246.018188;0.730048
1246.467041;0.713456
1247.369751;0.730048
1247.907104;0.713456
1248.628296;0.713456
1249.710449;0.730048
1250.067139;0.696864
1250.877563;0.696864
1251.418213;0.696864
1252.137207;0.696864
1252.859497;0.730048
1253.847168;0.713456
1254.297119;0.713456
1255.199585;0.730048
1255.827271;0.763232
1256.547363;0.746640
1257.179810;0.630496
1258.077393;0.663680
1258.437500;0.647088
1259.339844;0.680272
1259.790405;0.647088
1260.692627;0.647088
1261.137695;0.647088
1261.859253;0.647088
1262.398193;0.613904
1263.121216;0.630496
1263.842773;0.613904
1264.199585;0.613904
1265.009399;0.630496
1265.819214;0.613904
1266.087280;0.580720
1266.809082;0.597312
1267.259888;0.613904
1268.070312;0.613904
1268.879883;0.647088
1269.333618;0.663680
1269.779419;0.630496
1270.497314;0.647088
1271.128906;0.663680
1271.849609;0.663680
1272.747681;0.696864
1273.199463;0.696864
1273.829590;0.680272
1274.549805;0.680272
1275.538574;0.713456
1275.987427;0.713456
1276.709961;0.713456
1277.339722;0.680272
1278.057861;0.680272
1278.784180;0.663680
1279.412354;0.680272
1280.037598;0.680272
1280.757690;0.647088
1281.391235;0.663680
1282.201294;0.680272
1283.099976;0.696864
1283.458496;0.730048
1284.179932;0.713456
1284.900513;0.730048
1285.709717;0.730048
1286.615723;0.763232
1287.510742;0.730048
1287.867798;0.680272
1288.497681;0.696864
1289.307617;0.763232
1290.299683;0.713456
1290.747437;0.730048
1291.831299;0.696864
1292.188477;0.713456
1292.820557;0.696864
1293.537476;0.680272
1294.440186;0.713456
1294.977539;0.713456
1295.697510;0.730048
1296.600586;0.730048
1297.140503;0.713456
1297.857666;0.713456
1298.583008;0.763232
1299.480225;0.730048
1300.020630;0.713456
1300.743042;0.713456
1301.727783;0.746640
1302.267578;0.730048
1302.897949;0.663680
1303.799683;0.663680
1304.248779;0.696864
1304.971191;0.713456
1305.689819;0.730048
1306.497681;0.730048
1307.491455;0.730048
1307.938110;0.713456
1308.749634;0.696864
1309.287598;0.713456
1310.009888;0.713456
1310.728027;0.680272
1311.538330;0.713456
1312.535522;0.713456
1312.802979;0.680272
1313.518311;0.713456
1314.237793;0.730048
1315.141113;0.713456
1315.680054;0.730048
1316.398071;0.713456
1317.118408;0.713456
1317.840698;0.713456
1318.650757;0.647088
1319.461670;0.730048
1319.909790;0.713456
1320.811401;0.746640
1321.437988;0.779824
1322.610474;0.829600
1323.057983;0.796416
1323.868164;0.763232
1324.682861;0.813008
1325.491577;0.779824
1326.208008;0.746640
1327.380371;0.713456
1327.647827;0.696864
1328.459229;0.696864
1328.998047;0.713456
1329.721313;0.680272
1330.440063;0.696864
1331.256836;0.713456
1332.060547;0.763232
1332.958618;0.763232
1333.407837;0.763232
1334.218018;0.779824
1335.031006;0.763232
1336.021606;0.746640
1336.468384;0.746640
1337.190186;0.730048
1337.910278;0.713456
1338.628540;0.730048
1339.347900;0.713456
1340.163452;0.696864
1341.149414;0.746640
1341.508545;0.730048
1342.318359;0.796416
1343.133301;0.763232
1344.029907;0.713456
1344.481445;0.663680
1345.289185;0.713456
1345.917969;0.730048
1346.910278;0.730048
1347.360352;0.730048
1348.258301;0.696864
1348.798340;0.713456
1349.610962;0.713456
1350.510986;0.730048
1350.870239;0.680272
1351.859863;0.696864
1352.219116;0.680272
1353.300903;0.696864
1353.662476;0.696864
1354.470215;0.663680
1355.009521;0.696864
1355.818237;0.696864
1356.448242;0.713456
1357.261230;0.746640
1358.159668;0.730048
1358.698364;0.763232
1359.513550;0.796416
1360.138428;0.680272
1361.040527;0.763232
1361.581299;0.696864
1362.480347;0.713456
1363.020630;0.696864
1363.742676;0.680272
1364.373657;0.647088
1365.180176;0.680272
1365.990356;0.680272
1366.349731;0.680272
1367.431274;0.663680
1367.700806;0.647088
1368.691162;0.630496
1368.961548;0.647088
1369.771240;0.663680
1370.308228;0.663680
1370.940430;0.647088
1371.576050;0.647088
1372.473755;0.680272
1372.921387;0.680272
1373.639038;0.696864
1374.360596;0.696864
1375.078613;0.696864
1375.802856;0.696864
1376.700684;0.696864
1377.150513;0.696864
1377.780518;0.663680
1378.498291;0.647088
1379.222534;0.663680
1380.119873;0.663680
1380.480225;0.696864
1381.200684;0.696864
1381.918823;0.696864
1382.910278;0.713456
1383.271606;0.713456
1383.991455;0.696864
1384.710205;0.680272
1385.341675;0.680272
1386.058960;0.680272
1386.963623;0.680272
1387.414307;0.663680
1388.039673;0.680272
1389.118652;0.713456
1389.479858;0.696864
1390.199097;0.680272
1391.190430;0.713456
1391.550659;0.696864
1392.178467;0.630496
1392.898560;0.663680
1393.530640;0.663680
1394.249023;0.696864
1394.878540;0.647088
1395.603271;0.713456
1396.502075;0.680272
1397.223877;0.680272
1397.942383;0.680272
1398.298584;0.647088
1399.201294;0.663680
1399.649902;0.680272
1400.461182;0.663680
1400.908447;0.663680
1401.718628;0.730048
1402.260742;0.613904
1402.982056;0.713456
1403.698608;0.730048
1404.690430;0.663680
1405.048584;0.680272
1405.951538;0.696864
1406.488770;0.663680
1407.118652;0.696864
1408.110840;0.663680
1408.468750;0.663680
1409.549316;0.680272
1409.821899;0.663680
1410.539307;0.680272
1411.348511;0.696864
1412.247803;0.680272
1412.610229;0.696864
1413.241211;0.696864
1413.962158;0.713456
1414.678833;0.730048
1415.671021;0.713456
1416.122070;0.730048
1416.840942;0.713456
1417.742065;0.696864
1418.280884;0.696864
1419.271729;0.630496
1419.629272;0.713456
1420.540405;0.663680
1420.978760;0.663680
1421.608887;0.696864
1422.512207;0.663680
1422.962891;0.696864
1423.861206;0.696864
1424.399048;0.663680
1425.214233;0.680272
1425.748901;0.680272
1426.562134;0.680272
1427.461670;0.696864
1427.818848;0.696864
1428.809326;0.730048
1429.621582;0.713456
1429.891479;0.647088
1430.968872;0.713456
1431.328979;0.696864
1431.958984;0.630496
1432.589111;0.630496
1433.493530;0.663680
1433.941040;0.696864
1434.659180;0.713456
1435.378906;0.763232
1436.375732;0.779824
1437.359863;0.763232
1437.631470;0.730048
1437.721191;0.066368
1438.618896;0.763232
1439.159424;0.696864
1440.152222;0.730048
1440.692139;0.746640
1441.411499;0.730048
1442.399170;0.730048
1442.850464;0.713456
1443.662109;0.746640
1444.474243;0.730048
1445.098999;0.763232
1445.820068;0.746640
1446.721069;0.746640
1447.618896;0.746640
1448.158936;0.779824
1448.792358;0.713456
1449.509033;0.696864
1450.499512;0.680272
1451.311768;0.763232
1451.669067;0.713456
1452.389282;0.696864
1453.380981;0.696864
1454.101929;0.696864
1454.461426;0.713456
1455.271973;0.663680
1456.080933;0.630496
1456.439209;0.680272
1457.161499;0.680272
1458.059570;0.680272
1458.869873;0.647088
1459.141357;0.663680
1459.953857;0.696864
1460.850952;0.763232
1461.749146;0.779824
1462.561890;0.779824
1462.919312;0.746640
1463.639160;0.730048
1464.631836;0.746640
1465.441284;0.713456
1465.711914;0.630496
1466.433838;0.613904
1467.244507;0.663680
1467.689209;0.696864
1468.679688;0.713456
1469.496216;0.696864
1469.849243;0.713456
1470.570435;0.779824
1471.652832;0.763232
1472.102173;0.763232
1472.909790;0.713456
1473.902954;0.746640
1474.351685;0.730048
1474.979492;0.647088
1475.609253;0.647088
1476.599487;0.713456
1477.049194;0.696864
1477.862061;0.663680
1478.399292;0.680272
1479.389648;0.696864
1479.840210;0.746640
1480.652832;0.730048
1481.279907;0.730048
1482.094360;0.696864
1482.992065;0.663680
1483.349365;0.680272
1484.254883;0.713456
1484.609497;0.547536
1485.332886;0.730048
1485.959473;0.613904
1486.774902;0.630496
1487.131470;0.597312
1488.119019;0.630496
1488.389038;0.580720
1489.018799;0.647088
1489.829590;0.647088
1490.640625;0.663680
1490.999390;0.680272
1491.902832;0.663680
1492.351440;0.696864
1493.429688;0.713456
1493.789429;0.713456
1494.779663;0.746640
1495.319092;0.746640
1496.222900;0.763232
1496.849487;0.763232
1497.571045;0.746640
1498.296875;0.713456
1498.921753;0.663680
1499.912354;0.647088
1500.272827;0.696864
1501.259521;0.730048
1501.711792;0.647088
1502.429688;0.713456
1503.062378;0.713456
1504.139648;0.730048
1504.952393;0.763232
1505.399780;0.763232
1506.210205;0.796416
1507.201660;0.779824
1508.102417;0.796416
1508.549927;0.779824
1509.451904;0.746640
1509.992554;0.730048
1510.981934;0.730048
1511.429688;0.746640
1512.419800;0.746640
1513.229614;0.746640
1513.499756;0.514352
1514.219971;0.730048
1515.209717;0.746640
1516.022339;0.746640
1516.471924;0.730048
1517.464966;0.779824
1517.999756;0.796416
1518.904785;0.813008
1519.890503;0.763232
1520.341919;0.746640
1521.336426;0.680272
1521.692017;0.713456
1522.412354;0.713456
1523.493530;0.713456
1523.849854;0.696864
1524.479858;0.630496
1525.203491;0.663680
1526.015015;0.730048
1526.912964;0.713456
1527.359863;0.746640
1528.174316;0.730048
1528.982666;0.713456
1529.520508;0.713456
1530.244873;0.730048
1530.961914;0.713456
1531.771851;0.713456
1532.312744;0.680272
1533.031982;0.696864
1534.020630;0.696864
1534.470093;0.696864
1535.461426;0.696864
1535.819946;0.696864
1536.724609;0.680272
1537.170166;0.696864
1538.253174;0.713456
1538.792725;0.713456
1539.329834;0.680272
1540.413086;0.713456
1540.683350;0.696864
1541.582397;0.713456
1542.119995;0.696864
1542.840210;0.680272
1543.653320;0.663680
1544.552490;0.713456
1544.910034;0.696864
1545.540039;0.680272
1546.443237;0.696864
1547.342529;0.746640
1547.791626;0.746640
1548.693237;0.763232
1549.320068;0.779824
1550.311768;0.779824
1551.122559;0.713456
1551.572998;0.730048
1552.650024;0.779824
1553.010376;0.696864
1553.820557;0.696864
1554.545654;0.663680
1555.082153;0.746640
1556.163940;0.730048
1556.433228;0.630496
1557.421875;0.647088
1557.782837;0.613904
1558.502075;0.647088
1559.042114;0.696864
1559.850220;0.730048
1560.663208;0.713456
1561.475342;0.779824
1562.374023;0.746640
1562.733154;0.713456
1563.544678;0.730048
1564.353516;0.680272
1564.890259;0.680272
1565.702148;0.663680
1566.241211;0.680272
1567.143555;0.663680
1567.502319;0.663680
1568.491821;0.630496
1568.850220;0.680272
1569.480225;0.680272
1570.202393;0.713456
1571.015015;0.680272
1571.640259;0.713456
1572.540283;0.663680
1572.992310;0.663680
1573.890503;0.663680
1574.250244;0.647088
1575.332153;0.696864
1575.690308;0.696864
1576.413818;0.630496
1576.950317;0.613904
1577.762085;0.647088
1578.300537;0.730048
1579.203003;0.730048
1580.190308;0.796416
1580.552490;0.746640
1581.272461;0.713456
1582.080811;0.663680
1582.892334;0.680272
1583.254761;0.663680
1583.972412;0.647088
1584.603027;0.647088
1585.140503;0.597312
1586.313232;0.680272
1586.671997;0.613904
1587.122559;0.613904
1587.752441;0.630496
1588.382690;0.663680
1589.372681;0.663680
1589.912964;0.680272
1590.635620;0.730048
1591.170410;0.713456
1591.891846;0.696864
1592.520508;0.630496
1593.243408;0.630496
1594.141357;0.630496
1594.412964;0.663680
1595.135620;0.713456
1595.851685;0.730048
1596.931396;0.746640
1597.380493;0.730048
1598.283081;0.730048
1598.732788;0.696864
1599.722900;0.647088
1600.080566;0.630496
1600.985840;0.730048
1601.610962;0.696864
1602.150635;0.680272
1603.143188;0.613904
1603.419678;0.630496
1604.311035;0.663680
1604.762695;0.680272
1605.574097;0.680272
1606.383911;0.696864
1606.831543;0.680272
1607.460938;0.680272
1608.541138;0.647088
1608.812500;0.630496
1609.623535;0.630496
1610.072754;0.663680
1610.971069;0.696864
1611.510498;0.713456
1612.140869;0.680272
1613.042114;0.647088
1613.498779;0.730048
1614.486084;0.680272
1614.843140;0.663680
1615.832520;0.630496
1616.102905;0.630496
1616.910645;0.630496
1617.363770;0.630496
1618.085693;0.597312
1618.982300;0.630496
1619.345703;0.630496
1619.971924;0.696864
1621.053345;0.746640
1621.500854;0.813008
1622.582886;1.095072
1623.485718;0.829600
1624.290649;0.813008
1625.013306;0.779824
1626.003296;0.730048
1626.453491;0.663680
1627.263428;0.647088
1627.800781;0.680272
1628.431519;0.663680
1629.424072;0.696864
1630.233154;0.730048
1630.592773;0.779824
1631.313232;0.713456
1632.216187;0.696864
1633.110840;0.730048
1633.471069;0.680272
1634.373779;0.663680
1635.183960;0.696864
1635.542847;0.713456
1636.536621;0.663680
1636.892456;0.696864
1637.612305;0.730048
1638.333008;0.696864
1638.963013;0.647088
1639.774536;0.696864
1640.670776;0.696864
1641.123169;0.730048
1641.933960;0.713456
1642.473999;0.696864
1643.376099;0.696864
1643.911133;0.696864
1644.723145;0.663680
1645.171265;0.630496
1645.801270;0.630496
1646.520996;0.663680
1647.334717;0.713456
1647.874023;0.696864
1648.684204;0.647088
1649.313232;0.746640
1650.571167;1.244400
1651.293335;0.597312
1651.741211;0.613904
1652.734253;0.580720
1653.005737;0.647088
1653.813232;0.497760
1654.171265;0.713456
1655.163818;0.813008
1655.975098;0.696864
1656.333252;0.663680
1657.051025;0.680272
1658.131348;0.680272
1658.671875;0.713456
1659.576294;0.730048
1660.293823;0.746640
1660.651123;0.696864
1661.463989;0.730048
1662.364136;0.680272
1662.811401;0.680272
1663.351318;0.663680
1664.254272;0.647088
1664.614502;0.630496
1665.425659;0.630496
1666.321655;0.647088
1666.594238;0.680272
1667.671143;0.696864
1668.031128;0.713456
1668.845947;0.713456
1669.831665;0.763232
1670.644043;0.763232
1671.001099;0.696864
1671.993164;0.746640
1672.441162;0.730048
1673.524536;0.730048
1673.974121;0.663680
1674.512817;0.680272
1675.236328;0.663680
1676.045166;0.564128
1676.401611;0.630496
1677.304688;0.647088
1677.661255;0.647088
1678.296021;0.647088
1679.101440;0.680272
1679.911377;0.663680
1680.361206;0.647088
1681.174316;0.613904
1681.621216;0.647088
1682.344360;0.564128
1682.791260;0.630496
1683.421265;0.630496
1684.051514;0.680272
1684.771240;0.647088
1685.583984;0.663680
1686.393921;0.663680
1686.841431;0.746640
1687.923706;1.144848
1689.001465;1.045296
1689.994141;0.862784
1690.981812;0.829600
1691.521362;0.813008
1692.425781;0.730048
1692.961304;0.696864
1693.954956;0.730048
1694.405762;0.746640
1695.303467;0.564128
1695.575684;0.630496
1696.291504;0.696864
1697.374756;0.730048
1697.821533;0.796416
1698.814209;0.796416
1699.711548;0.813008
1700.254517;0.846192
1701.153809;0.862784
1701.965454;0.746640
1702.683594;0.813008
1703.583740;0.846192
1704.394897;0.680272
1705.203857;0.746640
1705.656738;0.680272
1706.371704;0.680272
1707.001709;0.647088
1707.812744;0.663680
1708.714233;0.680272
1708.984985;0.680272
1709.701538;0.696864
1710.422607;0.713456
1711.324341;0.713456
1712.136963;0.730048
1712.583008;0.730048
1713.392090;0.746640
1714.382080;0.680272
1714.742065;0.663680
1715.462402;0.680272
1716.093750;0.680272
1716.724121;0.696864
1717.803223;0.713456
1718.164551;0.713456
1718.971680;0.730048
1719.691772;0.746640
1720.864380;0.796416
1721.223877;0.779824
1722.036987;0.746640
1723.115234;0.763232
1723.564331;0.663680
1724.101685;0.680272
1724.911621;0.663680
1725.723633;0.663680
1726.081909;0.696864
1727.073975;0.696864
1727.524048;0.696864
1728.513428;0.680272
1728.872192;0.680272
1729.597534;0.713456
1730.494751;0.763232
1731.482300;0.829600
1732.115479;0.945744
1733.102417;0.929152
1734.183228;0.813008
1734.542969;0.680272
1735.624268;0.663680
1735.894897;0.680272
1736.794434;0.647088
1737.961914;0.082960
1738.863770;0.796416
1739.223755;0.763232
1740.126221;0.746640
1741.025513;0.713456
1741.292114;0.497760
1741.302734;0.066368
1741.563965;0.315248
1741.923828;0.348432
1742.553955;0.630496
1743.364014;0.597312
1744.174316;0.630496
1744.444946;0.663680
1745.435303;0.680272
1745.882080;0.696864
1746.783081;0.713456
1747.594482;0.680272
1747.864990;0.663680
1748.581787;0.663680
1749.214111;0.663680
1749.937378;0.647088
1750.747070;0.630496
1751.192261;0.663680
1751.822998;0.663680
1752.452881;0.630496
1753.353638;0.647088
1754.163452;0.647088
1754.435181;0.696864
1755.242065;0.746640
1756.413574;0.813008
1756.861938;0.846192
1757.762085;0.779824
1758.482544;0.763232
1759.114136;0.696864
1760.282104;0.713456
1760.465210;0.630496
1761.182129;0.696864
1761.813354;0.680272
1762.531860;0.696864
1763.255859;0.696864
1763.884155;0.663680
1764.695679;0.696864
1765.504639;0.547536
1765.687134;0.580720
1766.312134;0.630496
1766.944580;0.630496
1767.844971;0.663680
1768.652466;0.647088
1768.924316;0.663680
1769.737305;0.713456
1770.546631;0.613904
1770.992188;0.663680
1771.805664;0.647088
1772.252197;0.663680
1772.882202;0.647088
1773.604126;0.680272
1774.142822;0.580720
1774.956665;0.630496
1775.852661;0.663680
1776.125366;0.696864
1777.115234;0.680272
1777.562256;0.680272
1778.284790;0.746640
1779.454102;1.012112
1779.632935;0.315248
1780.445923;0.779824
1781.252075;0.846192
1781.972168;0.779824
1783.055908;0.763232
1783.503296;0.746640
1784.224365;0.730048
1785.217529;0.696864
1785.484741;0.547536
1786.114624;0.580720
1786.744263;0.647088
1787.556519;0.613904
1787.824463;0.530944
1788.724121;0.613904
1789.082520;0.597312
1789.624390;0.580720
1790.342285;0.647088
1791.246094;0.680272
1791.693237;0.746640
1792.862549;1.111664
1793.586426;0.647088
1794.212280;0.746640
1795.202881;0.895968
1796.282471;0.796416
1796.645264;0.746640
1797.454712;0.763232
1798.442627;0.597312
1798.804932;0.613904
1799.344482;0.663680
1800.154907;0.663680
1800.965088;0.597312
1801.234741;0.647088
1802.225586;0.696864
1802.672485;0.746640
1803.579590;0.763232
1803.587036;0.033184
1804.472534;0.746640
